PE FL                   SPECTRUM    ASCII       PEDS        1.60        
  -1
DMB001.SP
23/03/01
15:40:02.00
23/03/01
15:40:59.00


700.500000
1









LS50-B
415.00
2.50
2.50
SCAN
1
20
100
100
0
400
0
1
0
1
7
ON
435 365 
1 0 0
#HDR
-1
-1
#GR
NM
INT 
0.00002384185791015625
0.0
380.000000
0.500000
642
8
153.105000
-0.185000
#DATA
380.000000	0.001000   
380.500000	0.043000   
381.000000	0.010000   
381.500000	0.010000   
382.000000	0.083000   
382.500000	0.000000   
383.000000	0.082000   
383.500000	0.000000   
384.000000	0.057000   
384.500000	0.063000   
385.000000	-0.024000  
385.500000	0.111000   
386.000000	-0.054000  
386.500000	-0.074000  
387.000000	0.032000   
387.500000	0.010000   
388.000000	0.090000   
388.500000	0.205000   
389.000000	0.030000   
389.500000	0.098000   
390.000000	0.231000   
390.500000	0.032000   
391.000000	0.021000   
391.500000	0.108000   
392.000000	0.098000   
392.500000	0.114000   
393.000000	0.083000   
393.500000	0.000000   
394.000000	0.015000   
394.500000	0.006000   
395.000000	0.010000   
395.500000	-0.011000  
396.000000	0.028000   
396.500000	0.032000   
397.000000	0.085999   
397.500000	-0.044000  
398.000000	0.005000   
398.500000	0.045000   
399.000000	0.073000   
399.500000	0.054000   
400.000000	-0.055000  
400.500000	0.085999   
401.000000	0.230000   
401.500000	-0.021000  
402.000000	0.028000   
402.500000	0.099000   
403.000000	0.086999   
403.500000	0.109000   
404.000000	0.116000   
404.500000	0.089000   
405.000000	0.094000   
405.500000	0.065000   
406.000000	0.298000   
406.500000	0.294000   
407.000000	0.527000   
407.500000	0.706000   
408.000000	0.505000   
408.500000	1.415000   
409.000000	1.842000   
409.500000	3.840000   
410.000000	8.093999   
410.500000	14.100000  
411.000000	26.758000  
411.500000	40.394000  
412.000000	64.308000  
412.500000	92.034000  
413.000000	121.751000 
413.500000	139.932000 
414.000000	153.105000 
414.500000	146.693000 
415.000000	126.386000 
415.500000	108.824000 
416.000000	77.879000  
416.500000	49.038000  
417.000000	31.645000  
417.500000	16.866000  
418.000000	7.565000   
418.500000	3.779000   
419.000000	2.289000   
419.500000	1.021000   
420.000000	0.185000   
420.500000	0.276000   
421.000000	0.330000   
421.500000	0.264000   
422.000000	0.091000   
422.500000	0.233000   
423.000000	0.232000   
423.500000	0.306000   
424.000000	0.504000   
424.500000	0.081000   
425.000000	0.027000   
425.500000	0.246000   
426.000000	0.132000   
426.500000	-0.027000  
427.000000	0.093000   
427.500000	0.021000   
428.000000	0.007000   
428.500000	0.000000   
429.000000	0.066000   
429.500000	0.055000   
430.000000	0.144000   
430.500000	0.055000   
431.000000	0.054000   
431.500000	0.000000   
432.000000	-0.007000  
432.500000	0.065000   
433.000000	0.083000   
433.500000	0.214000   
434.000000	0.105000   
434.500000	0.221000   
435.000000	0.153000   
435.500000	0.065000   
436.000000	-0.040000  
436.500000	0.006000   
437.000000	0.010000   
437.500000	0.000000   
438.000000	0.028000   
438.500000	0.110000   
439.000000	0.076000   
439.500000	-0.054000  
440.000000	0.058000   
440.500000	0.027000   
441.000000	-0.068000  
441.500000	0.054000   
442.000000	0.017000   
442.500000	0.103000   
443.000000	0.125000   
443.500000	0.142000   
444.000000	0.006000   
444.500000	0.037000   
445.000000	0.063000   
445.500000	0.000000   
446.000000	-0.041000  
446.500000	0.006000   
447.000000	0.002000   
447.500000	-0.010000  
448.000000	-0.041000  
448.500000	0.055000   
449.000000	0.043000   
449.500000	0.086999   
450.000000	-0.060000  
450.500000	0.054000   
451.000000	0.005000   
451.500000	-0.010000  
452.000000	0.142000   
452.500000	0.116000   
453.000000	-0.042000  
453.500000	-0.054000  
454.000000	0.022000   
454.500000	0.125000   
455.000000	0.229000   
455.500000	0.000000   
456.000000	0.050000   
456.500000	0.028000   
457.000000	0.178000   
457.500000	0.242000   
458.000000	-0.003000  
458.500000	0.006000   
459.000000	0.276000   
459.500000	0.287000   
460.000000	0.066000   
460.500000	0.116000   
461.000000	0.042000   
461.500000	0.053000   
462.000000	0.011000   
462.500000	0.022000   
463.000000	0.199000   
463.500000	0.011000   
464.000000	0.179000   
464.500000	0.044000   
465.000000	0.024000   
465.500000	0.172000   
466.000000	-0.017000  
466.500000	0.033000   
467.000000	0.024000   
467.500000	0.000000   
468.000000	0.054000   
468.500000	0.093000   
469.000000	0.041000   
469.500000	0.044000   
470.000000	0.022000   
470.500000	0.098000   
471.000000	0.143000   
471.500000	0.000000   
472.000000	0.000000   
472.500000	0.055000   
473.000000	0.201000   
473.500000	0.000000   
474.000000	0.098000   
474.500000	0.005000   
475.000000	0.002000   
475.500000	0.010000   
476.000000	0.070999   
476.500000	-0.050000  
477.000000	-0.033000  
477.500000	0.065000   
478.000000	-0.017000  
478.500000	-0.027000  
479.000000	0.002000   
479.500000	0.000000   
480.000000	0.028000   
480.500000	0.055000   
481.000000	0.000000   
481.500000	0.055000   
482.000000	0.027000   
482.500000	0.006000   
483.000000	0.024000   
483.500000	0.054000   
484.000000	-0.015000  
484.500000	-0.006000  
485.000000	0.312000   
485.500000	0.000000   
486.000000	0.041000   
486.500000	-0.011000  
487.000000	-0.005000  
487.500000	0.022000   
488.000000	0.066000   
488.500000	0.000000   
489.000000	0.132000   
489.500000	0.000000   
490.000000	-0.040000  
490.500000	0.044000   
491.000000	0.070000   
491.500000	0.000000   
492.000000	0.000000   
492.500000	0.000000   
493.000000	0.083000   
493.500000	0.000000   
494.000000	0.006000   
494.500000	0.038000   
495.000000	0.029000   
495.500000	0.112000   
496.000000	0.059000   
496.500000	0.117000   
497.000000	0.000000   
497.500000	0.000000   
498.000000	-0.028000  
498.500000	-0.055000  
499.000000	0.016000   
499.500000	0.010000   
500.000000	-0.033000  
500.500000	0.116000   
501.000000	0.058000   
501.500000	0.010000   
502.000000	-0.007000  
502.500000	-0.055000  
503.000000	-0.035000  
503.500000	-0.087999  
504.000000	0.040000   
504.500000	0.000000   
505.000000	0.042000   
505.500000	0.056000   
506.000000	0.003000   
506.500000	0.005000   
507.000000	0.000000   
507.500000	0.000000   
508.000000	0.049000   
508.500000	0.065000   
509.000000	-0.033000  
509.500000	0.054000   
510.000000	-0.024000  
510.500000	0.033000   
511.000000	-0.134000  
511.500000	0.000000   
512.000000	0.061000   
512.500000	-0.032000  
513.000000	-0.003000  
513.500000	0.010000   
514.000000	0.000000   
514.500000	-0.067000  
515.000000	-0.033000  
515.500000	0.099000   
516.000000	0.105000   
516.500000	0.006000   
517.000000	0.013000   
517.500000	0.000000   
518.000000	0.065000   
518.500000	0.055000   
519.000000	0.109000   
519.500000	0.043000   
520.000000	0.069000   
520.500000	0.026000   
521.000000	0.033000   
521.500000	-0.010000  
522.000000	0.097000   
522.500000	0.056000   
523.000000	0.027000   
523.500000	-0.022000  
524.000000	0.002000   
524.500000	-0.027000  
525.000000	0.000000   
525.500000	0.010000   
526.000000	0.038000   
526.500000	0.044000   
527.000000	0.066000   
527.500000	0.055000   
528.000000	0.042000   
528.500000	0.039000   
529.000000	-0.005000  
529.500000	0.055000   
530.000000	0.021000   
530.500000	0.065000   
531.000000	0.112000   
531.500000	0.000000   
532.000000	0.006000   
532.500000	-0.092000  
533.000000	0.080000   
533.500000	0.054000   
534.000000	0.016000   
534.500000	0.201000   
535.000000	0.051000   
535.500000	0.011000   
536.000000	-0.041000  
536.500000	0.115000   
537.000000	0.041000   
537.500000	0.098000   
538.000000	0.007000   
538.500000	0.000000   
539.000000	0.033000   
539.500000	0.000000   
540.000000	0.030000   
540.500000	0.016000   
541.000000	0.002000   
541.500000	-0.109000  
542.000000	0.000000   
542.500000	0.000000   
543.000000	0.098000   
543.500000	-0.185000  
544.000000	0.045000   
544.500000	0.077000   
545.000000	0.101000   
545.500000	0.109000   
546.000000	-0.040000  
546.500000	0.006000   
547.000000	0.053000   
547.500000	0.010000   
548.000000	0.106000   
548.500000	0.000000   
549.000000	0.000000   
549.500000	0.000000   
550.000000	0.008000   
550.500000	-0.005000  
551.000000	0.225000   
551.500000	0.000000   
552.000000	0.033000   
552.500000	0.115000   
553.000000	0.154000   
553.500000	0.010000   
554.000000	0.000000   
554.500000	0.000000   
555.000000	-0.017000  
555.500000	0.111000   
556.000000	0.066000   
556.500000	0.060000   
557.000000	-0.003000  
557.500000	0.000000   
558.000000	0.043000   
558.500000	0.121000   
559.000000	0.123000   
559.500000	0.043000   
560.000000	0.000000   
560.500000	0.055000   
561.000000	-0.071999  
561.500000	0.000000   
562.000000	0.030000   
562.500000	0.027000   
563.000000	0.099000   
563.500000	0.043000   
564.000000	0.133000   
564.500000	-0.006000  
565.000000	-0.028000  
565.500000	0.226000   
566.000000	0.085000   
566.500000	0.011000   
567.000000	-0.005000  
567.500000	-0.055000  
568.000000	0.090000   
568.500000	0.076000   
569.000000	0.079000   
569.500000	0.000000   
570.000000	0.015000   
570.500000	0.006000   
571.000000	0.044000   
571.500000	-0.011000  
572.000000	0.062000   
572.500000	0.112000   
573.000000	-0.005000  
573.500000	0.142000   
574.000000	0.040000   
574.500000	0.000000   
575.000000	-0.034000  
575.500000	0.000000   
576.000000	0.055000   
576.500000	0.022000   
577.000000	-0.002000  
577.500000	-0.109000  
578.000000	-0.017000  
578.500000	-0.103000  
579.000000	0.055000   
579.500000	0.109000   
580.000000	-0.014000  
580.500000	-0.027000  
581.000000	-0.017000  
581.500000	-0.099000  
582.000000	-0.166000  
582.500000	0.000000   
583.000000	-0.114000  
583.500000	0.010000   
584.000000	0.265000   
584.500000	0.032000   
585.000000	-0.069000  
585.500000	-0.011000  
586.000000	0.033000   
586.500000	0.086999   
587.000000	-0.006000  
587.500000	0.000000   
588.000000	0.000000   
588.500000	0.000000   
589.000000	0.000000   
589.500000	0.055000   
590.000000	-0.098000  
590.500000	0.005000   
591.000000	0.052000   
591.500000	0.054000   
592.000000	0.005000   
592.500000	0.017000   
593.000000	0.018000   
593.500000	-0.101000  
594.000000	0.000000   
594.500000	0.000000   
595.000000	-0.042000  
595.500000	-0.011000  
596.000000	0.011000   
596.500000	0.043000   
597.000000	0.018000   
597.500000	0.021000   
598.000000	0.196000   
598.500000	0.000000   
599.000000	0.106000   
599.500000	0.053000   
600.000000	0.054000   
600.500000	0.115000   
601.000000	0.312000   
601.500000	-0.011000  
602.000000	0.074000   
602.500000	0.138000   
603.000000	0.135000   
603.500000	-0.098000  
604.000000	0.055000   
604.500000	0.148000   
605.000000	0.010000   
605.500000	0.000000   
606.000000	0.031000   
606.500000	0.027000   
607.000000	-0.008000  
607.500000	0.011000   
608.000000	-0.028000  
608.500000	-0.044000  
609.000000	0.203000   
609.500000	0.000000   
610.000000	0.071999   
610.500000	-0.021000  
611.000000	-0.008999  
611.500000	0.011000   
612.000000	0.104000   
612.500000	0.121000   
613.000000	0.135000   
613.500000	-0.054000  
614.000000	0.003000   
614.500000	0.033000   
615.000000	-0.027000  
615.500000	0.153000   
616.000000	0.040000   
616.500000	0.065000   
617.000000	-0.073000  
617.500000	0.000000   
618.000000	0.030000   
618.500000	0.075000   
619.000000	0.000000   
619.500000	0.195000   
620.000000	-0.006000  
620.500000	0.016000   
621.000000	-0.061000  
621.500000	-0.010000  
622.000000	0.000000   
622.500000	0.006000   
623.000000	-0.039000  
623.500000	-0.044000  
624.000000	0.177000   
624.500000	0.067000   
625.000000	0.068000   
625.500000	0.000000   
626.000000	0.003000   
626.500000	0.056000   
627.000000	0.025000   
627.500000	0.000000   
628.000000	0.049000   
628.500000	0.043000   
629.000000	0.013000   
629.500000	0.011000   
630.000000	0.003000   
630.500000	0.033000   
631.000000	0.021000   
631.500000	0.054000   
632.000000	0.079000   
632.500000	0.011000   
633.000000	0.087999   
633.500000	-0.010000  
634.000000	0.109000   
634.500000	0.000000   
635.000000	-0.018000  
635.500000	0.010000   
636.000000	0.163000   
636.500000	0.027000   
637.000000	0.050000   
637.500000	0.000000   
638.000000	0.000000   
638.500000	0.006000   
639.000000	0.085000   
639.500000	0.000000   
640.000000	-0.013000  
640.500000	-0.010000  
641.000000	0.008000   
641.500000	-0.053000  
642.000000	0.008000   
642.500000	0.054000   
643.000000	0.177000   
643.500000	-0.110000  
644.000000	-0.027000  
644.500000	0.113000   
645.000000	-0.080000  
645.500000	0.010000   
646.000000	0.000000   
646.500000	0.000000   
647.000000	0.000000   
647.500000	0.010000   
648.000000	0.078000   
648.500000	0.040000   
649.000000	0.159000   
649.500000	0.010000   
650.000000	0.022000   
650.500000	0.027000   
651.000000	0.000000   
651.500000	-0.021000  
652.000000	0.007000   
652.500000	0.049000   
653.000000	0.019000   
653.500000	0.011000   
654.000000	0.005000   
654.500000	-0.005000  
655.000000	0.016000   
655.500000	0.000000   
656.000000	0.106000   
656.500000	0.000000   
657.000000	0.074000   
657.500000	0.000000   
658.000000	-0.013000  
658.500000	-0.005000  
659.000000	0.002000   
659.500000	0.011000   
660.000000	-0.013000  
660.500000	0.005000   
661.000000	-0.008999  
661.500000	0.000000   
662.000000	-0.005000  
662.500000	0.027000   
663.000000	0.011000   
663.500000	0.011000   
664.000000	0.080000   
664.500000	-0.005000  
665.000000	0.083000   
665.500000	0.000000   
666.000000	0.029000   
666.500000	-0.070999  
667.000000	0.016000   
667.500000	0.021000   
668.000000	-0.011000  
668.500000	-0.017000  
669.000000	-0.014000  
669.500000	0.010000   
670.000000	0.102000   
670.500000	0.055000   
671.000000	-0.008999  
671.500000	0.229000   
672.000000	0.000000   
672.500000	0.033000   
673.000000	0.024000   
673.500000	0.010000   
674.000000	-0.004000  
674.500000	-0.016000  
675.000000	-0.014000  
675.500000	-0.010000  
676.000000	0.018000   
676.500000	0.027000   
677.000000	-0.005000  
677.500000	0.053000   
678.000000	-0.013000  
678.500000	0.033000   
679.000000	0.013000   
679.500000	0.054000   
680.000000	0.005000   
680.500000	-0.005000  
681.000000	0.082000   
681.500000	0.141000   
682.000000	0.038000   
682.500000	-0.011000  
683.000000	-0.002000  
683.500000	0.010000   
684.000000	0.003000   
684.500000	0.010000   
685.000000	-0.006000  
685.500000	0.177000   
686.000000	0.032000   
686.500000	0.049000   
687.000000	-0.017000  
687.500000	0.000000   
688.000000	0.066000   
688.500000	-0.011000  
689.000000	0.003000   
689.500000	0.000000   
690.000000	0.081000   
690.500000	0.011000   
691.000000	-0.078000  
691.500000	0.198000   
692.000000	-0.081000  
692.500000	-0.087999  
693.000000	-0.051000  
693.500000	0.000000   
694.000000	0.000000   
694.500000	-0.011000  
695.000000	-0.022000  
695.500000	-0.134000  
696.000000	-0.013000  
696.500000	-0.005000  
697.000000	0.070000   
697.500000	0.000000   
698.000000	-0.006000  
698.500000	0.006000   
699.000000	0.056000   
699.500000	-0.011000  
700.000000	-0.098000  
700.500000	-0.184000  

