PE FL                   SPECTRUM    ASCII       PEDS        1.60        
  -1
DMB004.SP
23/03/01
16:01:54.00
23/03/01
16:02:55.00


700.500000
1









LS50-B
415.00
2.50
2.50
SCAN
1
20
100
100
0
400
0
1
0
1
7
ON
700 415 
1 0 0
#HDR
-1
-1
#GR
NM
INT 
0.00002384185791015625
0.0
380.000000
0.500000
642
8
119.912000
-0.154000
#DATA
380.000000	0.001000   
380.500000	0.032000   
381.000000	0.000000   
381.500000	0.000000   
382.000000	0.000000   
382.500000	0.000000   
383.000000	0.075000   
383.500000	0.000000   
384.000000	0.102000   
384.500000	0.100000   
385.000000	0.086999   
385.500000	0.197000   
386.000000	-0.017000  
386.500000	0.011000   
387.000000	0.037000   
387.500000	0.000000   
388.000000	0.081000   
388.500000	0.044000   
389.000000	0.021000   
389.500000	-0.011000  
390.000000	-0.022000  
390.500000	0.031000   
391.000000	0.037000   
391.500000	0.043000   
392.000000	-0.052000  
392.500000	0.149000   
393.000000	0.076000   
393.500000	0.021000   
394.000000	0.000000   
394.500000	0.006000   
395.000000	0.011000   
395.500000	0.000000   
396.000000	0.151000   
396.500000	0.116000   
397.000000	0.217000   
397.500000	0.000000   
398.000000	0.021000   
398.500000	-0.080000  
399.000000	0.005000   
399.500000	0.087999   
400.000000	0.093000   
400.500000	0.055000   
401.000000	0.075000   
401.500000	0.379000   
402.000000	0.113000   
402.500000	0.196000   
403.000000	0.092000   
403.500000	0.000000   
404.000000	0.122000   
404.500000	0.208000   
405.000000	0.114000   
405.500000	0.111000   
406.000000	0.022000   
406.500000	0.295000   
407.000000	0.290000   
407.500000	0.654000   
408.000000	0.424000   
408.500000	0.848000   
409.000000	2.133000   
409.500000	5.250000   
410.000000	6.806000   
410.500000	12.510000  
411.000000	24.977000  
411.500000	35.012000  
412.000000	56.946000  
412.500000	77.005000  
413.000000	93.525000  
413.500000	113.162000 
414.000000	119.912000 
414.500000	111.371000 
415.000000	97.709000  
415.500000	76.089000  
416.000000	53.978000  
416.500000	35.375000  
417.000000	21.958000  
417.500000	12.347000  
418.000000	6.856000   
418.500000	2.971000   
419.000000	1.544000   
419.500000	0.703000   
420.000000	0.472000   
420.500000	0.337000   
421.000000	0.262000   
421.500000	0.411000   
422.000000	0.234000   
422.500000	0.086999   
423.000000	0.153000   
423.500000	0.100000   
424.000000	0.215000   
424.500000	0.260000   
425.000000	0.070999   
425.500000	0.010000   
426.000000	0.161000   
426.500000	0.207000   
427.000000	0.005000   
427.500000	-0.043000  
428.000000	0.085999   
428.500000	0.108000   
429.000000	0.032000   
429.500000	-0.022000  
430.000000	0.084000   
430.500000	0.054000   
431.000000	0.027000   
431.500000	0.021000   
432.000000	0.048000   
432.500000	0.252000   
433.000000	0.356000   
433.500000	0.087999   
434.000000	0.006000   
434.500000	0.087999   
435.000000	0.136000   
435.500000	0.022000   
436.000000	0.099000   
436.500000	0.044000   
437.000000	0.086999   
437.500000	0.307000   
438.000000	0.022000   
438.500000	0.043000   
439.000000	0.033000   
439.500000	0.054000   
440.000000	0.233000   
440.500000	0.252000   
441.000000	0.098000   
441.500000	0.010000   
442.000000	0.032000   
442.500000	0.076000   
443.000000	0.054000   
443.500000	-0.010000  
444.000000	0.151000   
444.500000	0.099000   
445.000000	0.176000   
445.500000	0.155000   
446.000000	0.081000   
446.500000	0.000000   
447.000000	0.081000   
447.500000	-0.010000  
448.000000	0.156000   
448.500000	0.048000   
449.000000	-0.002000  
449.500000	0.144000   
450.000000	0.035000   
450.500000	0.053000   
451.000000	0.017000   
451.500000	0.021000   
452.000000	-0.018000  
452.500000	0.070000   
453.000000	-0.053000  
453.500000	0.000000   
454.000000	0.068000   
454.500000	-0.038000  
455.000000	0.103000   
455.500000	-0.086999  
456.000000	0.035000   
456.500000	0.065000   
457.000000	0.014000   
457.500000	-0.021000  
458.000000	0.136000   
458.500000	0.055000   
459.000000	0.057000   
459.500000	-0.085999  
460.000000	0.061000   
460.500000	0.055000   
461.000000	0.075000   
461.500000	0.087999   
462.000000	0.261000   
462.500000	0.099000   
463.000000	0.086999   
463.500000	0.179000   
464.000000	0.313000   
464.500000	0.092000   
465.000000	0.140000   
465.500000	-0.022000  
466.000000	0.063000   
466.500000	0.055000   
467.000000	0.268000   
467.500000	0.109000   
468.000000	0.138000   
468.500000	0.070999   
469.000000	0.079000   
469.500000	0.135000   
470.000000	0.070000   
470.500000	0.163000   
471.000000	0.109000   
471.500000	0.000000   
472.000000	0.281000   
472.500000	0.199000   
473.000000	0.163000   
473.500000	0.622000   
474.000000	0.282000   
474.500000	0.230000   
475.000000	0.280000   
475.500000	0.232000   
476.000000	0.516000   
476.500000	0.411000   
477.000000	0.483000   
477.500000	0.644000   
478.000000	0.565999   
478.500000	0.324000   
479.000000	0.476000   
479.500000	0.431000   
480.000000	0.672000   
480.500000	0.415000   
481.000000	0.557000   
481.500000	0.501000   
482.000000	0.219000   
482.500000	0.298000   
483.000000	0.593000   
483.500000	0.538000   
484.000000	0.849000   
484.500000	0.412000   
485.000000	0.260000   
485.500000	0.331000   
486.000000	0.451000   
486.500000	0.173000   
487.000000	0.300000   
487.500000	0.305000   
488.000000	0.137000   
488.500000	0.158000   
489.000000	0.157000   
489.500000	0.308000   
490.000000	0.191000   
490.500000	0.130000   
491.000000	0.038000   
491.500000	0.110000   
492.000000	0.084000   
492.500000	0.191000   
493.000000	0.227000   
493.500000	0.195000   
494.000000	0.000000   
494.500000	0.094000   
495.000000	0.197000   
495.500000	-0.010000  
496.000000	0.050000   
496.500000	0.115000   
497.000000	0.201000   
497.500000	-0.098000  
498.000000	-0.094000  
498.500000	0.184000   
499.000000	0.218000   
499.500000	0.221000   
500.000000	0.083000   
500.500000	0.000000   
501.000000	-0.016000  
501.500000	0.085999   
502.000000	0.247000   
502.500000	0.196000   
503.000000	0.065000   
503.500000	0.085999   
504.000000	0.276000   
504.500000	0.055000   
505.000000	0.000000   
505.500000	0.087999   
506.000000	0.145000   
506.500000	0.114000   
507.000000	0.029000   
507.500000	0.086999   
508.000000	0.185000   
508.500000	0.128000   
509.000000	-0.056000  
509.500000	0.086999   
510.000000	0.154000   
510.500000	-0.022000  
511.000000	0.000000   
511.500000	0.000000   
512.000000	0.138000   
512.500000	0.000000   
513.000000	0.228000   
513.500000	0.086999   
514.000000	0.030000   
514.500000	0.010000   
515.000000	0.064000   
515.500000	0.111000   
516.000000	0.169000   
516.500000	0.087999   
517.000000	0.271000   
517.500000	-0.011000  
518.000000	-0.036000  
518.500000	-0.076000  
519.000000	0.005000   
519.500000	0.000000   
520.000000	0.043000   
520.500000	0.012000   
521.000000	0.168000   
521.500000	0.000000   
522.000000	0.050000   
522.500000	-0.027000  
523.000000	0.066000   
523.500000	0.089000   
524.000000	-0.065000  
524.500000	0.044000   
525.000000	0.021000   
525.500000	0.153000   
526.000000	-0.041000  
526.500000	0.044000   
527.000000	0.116000   
527.500000	0.178000   
528.000000	0.087999   
528.500000	0.119000   
529.000000	-0.028000  
529.500000	0.109000   
530.000000	0.085000   
530.500000	0.098000   
531.000000	0.022000   
531.500000	-0.021000  
532.000000	0.130000   
532.500000	-0.005000  
533.000000	0.000000   
533.500000	-0.022000  
534.000000	0.251000   
534.500000	0.015000   
535.000000	0.002000   
535.500000	0.011000   
536.000000	0.007000   
536.500000	0.011000   
537.000000	-0.036000  
537.500000	-0.064000  
538.000000	0.064000   
538.500000	-0.051000  
539.000000	-0.025000  
539.500000	0.180000   
540.000000	0.145000   
540.500000	0.077000   
541.000000	0.000000   
541.500000	0.000000   
542.000000	0.254000   
542.500000	0.224000   
543.000000	0.073000   
543.500000	0.000000   
544.000000	0.062000   
544.500000	0.022000   
545.000000	0.083000   
545.500000	0.176000   
546.000000	0.042000   
546.500000	0.110000   
547.000000	-0.011000  
547.500000	0.000000   
548.000000	0.209000   
548.500000	0.174000   
549.000000	0.051000   
549.500000	0.086999   
550.000000	0.087999   
550.500000	0.087999   
551.000000	0.085999   
551.500000	0.021000   
552.000000	0.055000   
552.500000	0.065000   
553.000000	-0.022000  
553.500000	0.000000   
554.000000	0.070999   
554.500000	0.010000   
555.000000	0.008000   
555.500000	0.086999   
556.000000	0.039000   
556.500000	0.082000   
557.000000	0.002000   
557.500000	0.054000   
558.000000	0.041000   
558.500000	0.071999   
559.000000	0.109000   
559.500000	0.086999   
560.000000	0.027000   
560.500000	0.011000   
561.000000	-0.021000  
561.500000	0.000000   
562.000000	0.207000   
562.500000	0.092000   
563.000000	0.055000   
563.500000	-0.021000  
564.000000	0.131000   
564.500000	0.044000   
565.000000	-0.020000  
565.500000	0.089000   
566.000000	0.085999   
566.500000	-0.002000  
567.000000	-0.022000  
567.500000	-0.021000  
568.000000	0.216000   
568.500000	0.086999   
569.000000	-0.022000  
569.500000	0.089000   
570.000000	-0.079000  
570.500000	0.044000   
571.000000	0.185000   
571.500000	0.000000   
572.000000	0.038000   
572.500000	0.087999   
573.000000	0.022000   
573.500000	-0.021000  
574.000000	0.039000   
574.500000	0.044000   
575.000000	0.000000   
575.500000	0.000000   
576.000000	0.003000   
576.500000	0.016000   
577.000000	0.071999   
577.500000	0.086999   
578.000000	-0.097000  
578.500000	0.000000   
579.000000	-0.075000  
579.500000	0.087999   
580.000000	0.006000   
580.500000	-0.038000  
581.000000	0.042000   
581.500000	0.000000   
582.000000	-0.016000  
582.500000	0.067000   
583.000000	0.033000   
583.500000	0.000000   
584.000000	0.133000   
584.500000	0.027000   
585.000000	0.013000   
585.500000	0.086999   
586.000000	-0.132000  
586.500000	0.054000   
587.000000	-0.039000  
587.500000	0.000000   
588.000000	0.086999   
588.500000	0.081000   
589.000000	0.035000   
589.500000	0.087999   
590.000000	-0.069000  
590.500000	0.038000   
591.000000	-0.126000  
591.500000	-0.097000  
592.000000	0.006000   
592.500000	0.087999   
593.000000	-0.002000  
593.500000	0.021000   
594.000000	0.000000   
594.500000	0.000000   
595.000000	0.017000   
595.500000	-0.022000  
596.000000	0.045000   
596.500000	0.045000   
597.000000	-0.022000  
597.500000	-0.011000  
598.000000	-0.103000  
598.500000	-0.011000  
599.000000	0.049000   
599.500000	0.000000   
600.000000	0.016000   
600.500000	0.093000   
601.000000	-0.019000  
601.500000	0.021000   
602.000000	-0.070000  
602.500000	0.022000   
603.000000	0.000000   
603.500000	0.000000   
604.000000	0.000000   
604.500000	0.056000   
605.000000	0.028000   
605.500000	-0.054000  
606.000000	0.022000   
606.500000	0.043000   
607.000000	0.000000   
607.500000	0.089000   
608.000000	0.028000   
608.500000	0.054000   
609.000000	-0.066000  
609.500000	0.089000   
610.000000	0.039000   
610.500000	0.000000   
611.000000	0.017000   
611.500000	0.000000   
612.000000	0.040000   
612.500000	0.000000   
613.000000	0.000000   
613.500000	0.000000   
614.000000	0.142000   
614.500000	0.066000   
615.000000	0.022000   
615.500000	0.000000   
616.000000	0.017000   
616.500000	0.196000   
617.000000	0.138000   
617.500000	0.010000   
618.000000	-0.005000  
618.500000	0.021000   
619.000000	0.150000   
619.500000	0.065000   
620.000000	0.022000   
620.500000	0.043000   
621.000000	0.000000   
621.500000	0.022000   
622.000000	0.093000   
622.500000	0.094000   
623.000000	0.038000   
623.500000	0.021000   
624.000000	-0.007000  
624.500000	0.011000   
625.000000	0.005000   
625.500000	0.064000   
626.000000	0.022000   
626.500000	0.043000   
627.000000	0.075000   
627.500000	0.065000   
628.000000	0.019000   
628.500000	0.005000   
629.000000	0.000000   
629.500000	-0.010000  
630.000000	-0.082000  
630.500000	0.044000   
631.000000	0.037000   
631.500000	0.087999   
632.000000	0.000000   
632.500000	0.000000   
633.000000	-0.066000  
633.500000	0.000000   
634.000000	0.104000   
634.500000	0.076000   
635.000000	0.074000   
635.500000	0.010000   
636.000000	-0.003000  
636.500000	-0.005000  
637.000000	0.000000   
637.500000	0.000000   
638.000000	0.000000   
638.500000	0.000000   
639.000000	0.016000   
639.500000	0.000000   
640.000000	0.164000   
640.500000	0.108000   
641.000000	0.022000   
641.500000	0.000000   
642.000000	0.022000   
642.500000	0.054000   
643.000000	-0.003000  
643.500000	0.189000   
644.000000	0.038000   
644.500000	0.039000   
645.000000	0.063000   
645.500000	0.000000   
646.000000	-0.003000  
646.500000	-0.010000  
647.000000	-0.011000  
647.500000	-0.087999  
648.000000	0.022000   
648.500000	0.087999   
649.000000	0.022000   
649.500000	0.000000   
650.000000	-0.007000  
650.500000	-0.011000  
651.000000	-0.005000  
651.500000	0.000000   
652.000000	0.022000   
652.500000	0.032000   
653.000000	0.062000   
653.500000	0.000000   
654.000000	0.063000   
654.500000	0.086999   
655.000000	0.021000   
655.500000	0.098000   
656.000000	-0.036000  
656.500000	0.081000   
657.000000	-0.070999  
657.500000	0.000000   
658.000000	0.006000   
658.500000	0.010000   
659.000000	0.000000   
659.500000	-0.086999  
660.000000	0.019000   
660.500000	-0.044000  
661.000000	0.000000   
661.500000	0.000000   
662.000000	0.000000   
662.500000	0.000000   
663.000000	0.000000   
663.500000	-0.021000  
664.000000	0.049000   
664.500000	-0.043000  
665.000000	-0.070999  
665.500000	0.131000   
666.000000	0.022000   
666.500000	0.032000   
667.000000	-0.087999  
667.500000	0.000000   
668.000000	0.095000   
668.500000	0.044000   
669.000000	0.065000   
669.500000	-0.154000  
670.000000	0.015000   
670.500000	-0.005000  
671.000000	-0.010000  
671.500000	0.021000   
672.000000	-0.013000  
672.500000	-0.039000  
673.000000	-0.013000  
673.500000	-0.011000  
674.000000	0.049000   
674.500000	0.098000   
675.000000	0.016000   
675.500000	-0.055000  
676.000000	0.000000   
676.500000	0.027000   
677.000000	0.006000   
677.500000	0.011000   
678.000000	-0.023000  
678.500000	0.047000   
679.000000	0.029000   
679.500000	0.021000   
680.000000	0.011000   
680.500000	0.011000   
681.000000	0.035000   
681.500000	0.110000   
682.000000	-0.014000  
682.500000	0.210000   
683.000000	0.110000   
683.500000	-0.022000  
684.000000	0.007000   
684.500000	-0.050000  
685.000000	-0.024000  
685.500000	0.044000   
686.000000	-0.008000  
686.500000	0.027000   
687.000000	-0.027000  
687.500000	0.000000   
688.000000	-0.015000  
688.500000	0.000000   
689.000000	-0.016000  
689.500000	-0.100000  
690.000000	-0.005000  
690.500000	0.005000   
691.000000	-0.066000  
691.500000	0.085999   
692.000000	0.022000   
692.500000	0.086999   
693.000000	0.086999   
693.500000	0.000000   
694.000000	0.000000   
694.500000	0.000000   
695.000000	-0.083000  
695.500000	0.000000   
696.000000	0.065000   
696.500000	-0.044000  
697.000000	0.045000   
697.500000	0.022000   
698.000000	0.000000   
698.500000	-0.005000  
699.000000	-0.002000  
699.500000	0.000000   
700.000000	0.000000   
700.500000	0.000000   

