PE FL                   SPECTRUM    ASCII       PEDS        1.60        
  -1
DMB008.SP
23/03/01
16:22:37.00
23/03/01
16:23:39.00


700.500000
1









LS50-B
415.00
2.50
2.50
SCAN
1
20
100
100
0
400
0
1
0
1
7
ON
700 415 
1 0 0
#HDR
-1
-1
#GR
NM
INT 
0.00002384185791015625
0.0
380.000000
0.500000
642
8
323.125000
-0.100000
#DATA
380.000000	-0.100000  
380.500000	0.163000   
381.000000	0.249000   
381.500000	0.175000   
382.000000	0.253000   
382.500000	0.105000   
383.000000	0.080000   
383.500000	0.189000   
384.000000	0.121000   
384.500000	0.089000   
385.000000	0.254000   
385.500000	-0.044000  
386.000000	0.095000   
386.500000	0.060000   
387.000000	0.065000   
387.500000	0.240000   
388.000000	0.108000   
388.500000	0.034000   
389.000000	-0.058000  
389.500000	0.144000   
390.000000	0.183000   
390.500000	0.197000   
391.000000	0.328000   
391.500000	0.188000   
392.000000	0.089000   
392.500000	0.204000   
393.000000	0.198000   
393.500000	0.413000   
394.000000	0.165000   
394.500000	0.207000   
395.000000	0.006000   
395.500000	0.173000   
396.000000	0.272000   
396.500000	0.176000   
397.000000	0.418000   
397.500000	0.021000   
398.000000	0.355000   
398.500000	0.146000   
399.000000	0.133000   
399.500000	0.236000   
400.000000	0.317000   
400.500000	0.081000   
401.000000	0.022000   
401.500000	0.197000   
402.000000	0.156000   
402.500000	-0.055000  
403.000000	0.053000   
403.500000	0.186000   
404.000000	0.355000   
404.500000	0.290000   
405.000000	0.359000   
405.500000	0.228000   
406.000000	0.415000   
406.500000	0.580000   
407.000000	0.286000   
407.500000	0.540000   
408.000000	0.983000   
408.500000	1.447000   
409.000000	1.681000   
409.500000	3.240000   
410.000000	6.970000   
410.500000	13.491000  
411.000000	23.518000  
411.500000	37.777000  
412.000000	52.904000  
412.500000	75.751000  
413.000000	97.580000  
413.500000	113.921000 
414.000000	117.111000 
414.500000	109.594000 
415.000000	94.708000  
415.500000	80.711000  
416.000000	58.863000  
416.500000	35.140000  
417.000000	22.098000  
417.500000	10.901000  
418.000000	7.126000   
418.500000	2.886000   
419.000000	1.397000   
419.500000	1.069000   
420.000000	0.839000   
420.500000	0.545000   
421.000000	0.497000   
421.500000	0.112000   
422.000000	0.480000   
422.500000	0.641000   
423.000000	0.458000   
423.500000	0.759000   
424.000000	0.309000   
424.500000	0.426000   
425.000000	0.323000   
425.500000	0.377000   
426.000000	0.733000   
426.500000	0.505000   
427.000000	0.228000   
427.500000	0.626000   
428.000000	0.585000   
428.500000	0.479000   
429.000000	0.200000   
429.500000	0.308000   
430.000000	0.619000   
430.500000	0.369000   
431.000000	0.652000   
431.500000	0.443000   
432.000000	0.335000   
432.500000	0.376000   
433.000000	0.334000   
433.500000	0.498000   
434.000000	0.674000   
434.500000	0.949000   
435.000000	0.652000   
435.500000	0.611000   
436.000000	0.596000   
436.500000	0.661000   
437.000000	0.783000   
437.500000	0.703000   
438.000000	0.628000   
438.500000	0.636000   
439.000000	0.462000   
439.500000	0.579000   
440.000000	0.747000   
440.500000	0.868000   
441.000000	0.672000   
441.500000	1.123000   
442.000000	0.542000   
442.500000	0.732000   
443.000000	0.862000   
443.500000	1.230000   
444.000000	1.228000   
444.500000	1.044000   
445.000000	0.862000   
445.500000	1.161000   
446.000000	0.868000   
446.500000	1.142000   
447.000000	1.175000   
447.500000	1.336000   
448.000000	1.271000   
448.500000	1.453000   
449.000000	1.417000   
449.500000	1.050000   
450.000000	1.516000   
450.500000	1.364000   
451.000000	1.601000   
451.500000	1.970000   
452.000000	1.520000   
452.500000	1.503000   
453.000000	1.753000   
453.500000	1.875000   
454.000000	1.925000   
454.500000	1.761000   
455.000000	1.577000   
455.500000	1.875000   
456.000000	2.025000   
456.500000	2.258000   
457.000000	1.600000   
457.500000	1.768000   
458.000000	1.723000   
458.500000	1.851000   
459.000000	1.497000   
459.500000	1.659000   
460.000000	2.216000   
460.500000	2.718000   
461.000000	2.275000   
461.500000	2.104000   
462.000000	1.889000   
462.500000	1.857000   
463.000000	2.076000   
463.500000	1.642000   
464.000000	1.833000   
464.500000	2.236000   
465.000000	2.466000   
465.500000	3.126000   
466.000000	2.158000   
466.500000	1.905000   
467.000000	2.290000   
467.500000	2.549000   
468.000000	2.231000   
468.500000	2.374000   
469.000000	2.475000   
469.500000	2.778000   
470.000000	2.471000   
470.500000	2.747000   
471.000000	3.023000   
471.500000	2.592000   
472.000000	2.499000   
472.500000	2.835000   
473.000000	3.469000   
473.500000	2.908000   
474.000000	3.470000   
474.500000	2.946000   
475.000000	3.340000   
475.500000	3.769000   
476.000000	3.729000   
476.500000	3.794000   
477.000000	3.877000   
477.500000	3.965000   
478.000000	3.702000   
478.500000	3.731000   
479.000000	3.768000   
479.500000	4.837000   
480.000000	4.503000   
480.500000	5.300000   
481.000000	6.561000   
481.500000	6.132000   
482.000000	5.862000   
482.500000	5.671000   
483.000000	6.734000   
483.500000	7.384000   
484.000000	8.842000   
484.500000	10.270000  
485.000000	11.811000  
485.500000	11.266000  
486.000000	11.823000  
486.500000	12.867000  
487.000000	14.908000  
487.500000	13.379000  
488.000000	17.728000  
488.500000	18.528000  
489.000000	19.531000  
489.500000	20.960000  
490.000000	23.038000  
490.500000	25.089000  
491.000000	25.789000  
491.500000	28.806000  
492.000000	32.161000  
492.500000	34.766000  
493.000000	38.926000  
493.500000	37.695000  
494.000000	45.450000  
494.500000	47.757000  
495.000000	52.965000  
495.500000	54.455000  
496.000000	58.654000  
496.500000	65.057000  
497.000000	72.589000  
497.500000	80.581999  
498.000000	85.221999  
498.500000	89.557000  
499.000000	94.837999  
499.500000	106.371000 
500.000000	118.575000 
500.500000	120.119000 
501.000000	128.064000 
501.500000	131.698000 
502.000000	142.893000 
502.500000	151.768000 
503.000000	160.556000 
503.500000	173.867000 
504.000000	175.325000 
504.500000	188.800000 
505.000000	195.134000 
505.500000	206.245000 
506.000000	215.807000 
506.500000	224.248000 
507.000000	232.596000 
507.500000	242.231000 
508.000000	248.039000 
508.500000	261.770000 
509.000000	267.028000 
509.500000	272.371000 
510.000000	274.680000 
510.500000	288.758000 
511.000000	295.103000 
511.500000	287.500000 
512.000000	296.945000 
512.500000	308.480000 
513.000000	302.833000 
513.500000	301.773000 
514.000000	311.419000 
514.500000	309.715000 
515.000000	315.633000 
515.500000	323.125000 
516.000000	313.085000 
516.500000	316.988000 
517.000000	308.158000 
517.500000	316.629000 
518.000000	312.496000 
518.500000	302.411000 
519.000000	312.380000 
519.500000	297.731000 
520.000000	302.057000 
520.500000	299.159000 
521.000000	297.176000 
521.500000	298.975000 
522.000000	284.302000 
522.500000	279.878000 
523.000000	279.811000 
523.500000	268.206000 
524.000000	272.018000 
524.500000	261.765000 
525.000000	256.849000 
525.500000	256.861000 
526.000000	253.378000 
526.500000	242.110000 
527.000000	245.509000 
527.500000	241.742000 
528.000000	233.483000 
528.500000	226.760000 
529.000000	225.001000 
529.500000	209.806000 
530.000000	216.041000 
530.500000	210.193000 
531.000000	209.454000 
531.500000	211.259000 
532.000000	199.469000 
532.500000	194.181000 
533.000000	188.888000 
533.500000	192.791000 
534.000000	187.534000 
534.500000	178.347000 
535.000000	183.357000 
535.500000	184.008000 
536.000000	169.958000 
536.500000	169.499000 
537.000000	170.380000 
537.500000	172.479000 
538.000000	159.434000 
538.500000	154.283000 
539.000000	154.880000 
539.500000	153.988000 
540.000000	153.935000 
540.500000	149.700000 
541.000000	143.516000 
541.500000	143.960000 
542.000000	144.961000 
542.500000	139.595000 
543.000000	136.723000 
543.500000	137.323000 
544.000000	132.044000 
544.500000	133.945000 
545.000000	129.109000 
545.500000	125.236000 
546.000000	119.888000 
546.500000	124.952000 
547.000000	123.834000 
547.500000	122.062000 
548.000000	115.871000 
548.500000	112.158000 
549.000000	113.354000 
549.500000	110.547000 
550.000000	107.559000 
550.500000	109.102000 
551.000000	103.880000 
551.500000	107.709000 
552.000000	102.279000 
552.500000	99.679000  
553.000000	101.065000 
553.500000	97.777000  
554.000000	98.614000  
554.500000	95.688000  
555.000000	94.096999  
555.500000	96.441000  
556.000000	88.157000  
556.500000	87.458000  
557.000000	87.727000  
557.500000	83.750000  
558.000000	84.824000  
558.500000	81.434000  
559.000000	81.727999  
559.500000	80.253000  
560.000000	78.623000  
560.500000	77.797000  
561.000000	76.744000  
561.500000	74.470000  
562.000000	71.497000  
562.500000	72.882000  
563.000000	69.197999  
563.500000	69.565000  
564.000000	64.614000  
564.500000	64.921000  
565.000000	63.382000  
565.500000	63.647000  
566.000000	61.205000  
566.500000	60.756000  
567.000000	58.909000  
567.500000	57.180000  
568.000000	56.977000  
568.500000	56.197000  
569.000000	51.357000  
569.500000	49.553000  
570.000000	52.089000  
570.500000	52.281000  
571.000000	48.835000  
571.500000	50.681000  
572.000000	47.591000  
572.500000	44.715000  
573.000000	46.438000  
573.500000	42.605000  
574.000000	41.675000  
574.500000	41.907000  
575.000000	38.380000  
575.500000	40.007000  
576.000000	40.040000  
576.500000	40.528000  
577.000000	38.766000  
577.500000	36.769000  
578.000000	34.575000  
578.500000	32.621000  
579.000000	33.874000  
579.500000	31.584000  
580.000000	30.075000  
580.500000	31.815000  
581.000000	30.024000  
581.500000	31.640000  
582.000000	30.498000  
582.500000	28.906000  
583.000000	27.512000  
583.500000	28.492000  
584.000000	27.770000  
584.500000	25.665000  
585.000000	25.405000  
585.500000	25.334000  
586.000000	25.773000  
586.500000	23.372000  
587.000000	24.553000  
587.500000	24.215000  
588.000000	21.018000  
588.500000	21.534000  
589.000000	21.550000  
589.500000	22.494000  
590.000000	21.274000  
590.500000	21.213000  
591.000000	21.222000  
591.500000	22.752000  
592.000000	20.525000  
592.500000	19.108000  
593.000000	20.348000  
593.500000	16.769000  
594.000000	17.267000  
594.500000	17.867000  
595.000000	17.522000  
595.500000	15.550000  
596.000000	15.134000  
596.500000	15.318000  
597.000000	14.783000  
597.500000	15.227000  
598.000000	16.038000  
598.500000	14.983000  
599.000000	14.106000  
599.500000	14.242000  
600.000000	15.310000  
600.500000	15.922000  
601.000000	14.254000  
601.500000	13.906000  
602.000000	15.152000  
602.500000	12.432000  
603.000000	12.062000  
603.500000	12.695000  
604.000000	13.034000  
604.500000	12.474000  
605.000000	11.205000  
605.500000	10.778000  
606.000000	11.622000  
606.500000	11.713000  
607.000000	11.999000  
607.500000	11.155000  
608.000000	9.885999   
608.500000	10.739000  
609.000000	11.102000  
609.500000	10.749000  
610.000000	10.541000  
610.500000	10.831000  
611.000000	10.432000  
611.500000	8.020000   
612.000000	8.930999   
612.500000	8.561000   
613.000000	8.990000   
613.500000	8.125000   
614.000000	8.660000   
614.500000	9.207000   
615.000000	9.272000   
615.500000	8.109999   
616.000000	7.749000   
616.500000	8.808000   
617.000000	8.007000   
617.500000	7.076000   
618.000000	6.915000   
618.500000	6.566000   
619.000000	7.035000   
619.500000	7.774000   
620.000000	7.143000   
620.500000	7.380000   
621.000000	7.204000   
621.500000	6.818000   
622.000000	5.689000   
622.500000	6.202000   
623.000000	6.058000   
623.500000	5.986000   
624.000000	5.776000   
624.500000	5.173000   
625.000000	5.019000   
625.500000	5.200000   
626.000000	5.342000   
626.500000	4.258000   
627.000000	4.472000   
627.500000	4.013000   
628.000000	5.249000   
628.500000	4.767000   
629.000000	4.138000   
629.500000	5.792000   
630.000000	4.283000   
630.500000	4.581000   
631.000000	4.435000   
631.500000	4.524000   
632.000000	3.626000   
632.500000	4.461000   
633.000000	4.699000   
633.500000	4.024000   
634.000000	4.355000   
634.500000	3.943000   
635.000000	3.527000   
635.500000	4.201000   
636.000000	3.338000   
636.500000	3.460000   
637.000000	3.054000   
637.500000	2.658000   
638.000000	3.246000   
638.500000	3.017000   
639.000000	2.787000   
639.500000	2.977000   
640.000000	2.865000   
640.500000	2.683000   
641.000000	2.587000   
641.500000	2.303000   
642.000000	2.358000   
642.500000	2.840000   
643.000000	2.927000   
643.500000	2.130000   
644.000000	2.368000   
644.500000	2.439000   
645.000000	2.206000   
645.500000	1.702000   
646.000000	2.690000   
646.500000	2.224000   
647.000000	2.467000   
647.500000	1.995000   
648.000000	1.905000   
648.500000	2.240000   
649.000000	2.744000   
649.500000	2.596000   
650.000000	1.918000   
650.500000	1.714000   
651.000000	1.896000   
651.500000	2.355000   
652.000000	2.337000   
652.500000	1.702000   
653.000000	1.847000   
653.500000	1.326000   
654.000000	1.422000   
654.500000	1.608000   
655.000000	1.778000   
655.500000	1.772000   
656.000000	1.334000   
656.500000	2.064000   
657.000000	1.821000   
657.500000	1.890000   
658.000000	1.518000   
658.500000	1.460000   
659.000000	1.828000   
659.500000	1.363000   
660.000000	1.513000   
660.500000	1.315000   
661.000000	1.458000   
661.500000	1.539000   
662.000000	1.327000   
662.500000	1.239000   
663.000000	1.295000   
663.500000	1.415000   
664.000000	1.627000   
664.500000	0.924000   
665.000000	0.991000   
665.500000	1.206000   
666.000000	0.964000   
666.500000	0.863000   
667.000000	1.038000   
667.500000	1.095000   
668.000000	1.017000   
668.500000	1.151000   
669.000000	1.185000   
669.500000	1.288000   
670.000000	1.400000   
670.500000	1.039000   
671.000000	0.877000   
671.500000	1.084000   
672.000000	0.825000   
672.500000	1.052000   
673.000000	1.160000   
673.500000	1.064000   
674.000000	1.183000   
674.500000	1.567000   
675.000000	0.871000   
675.500000	0.821000   
676.000000	1.099000   
676.500000	0.827000   
677.000000	0.765000   
677.500000	0.976000   
678.000000	0.554000   
678.500000	0.468000   
679.000000	0.983000   
679.500000	0.951000   
680.000000	0.709000   
680.500000	0.678000   
681.000000	0.946000   
681.500000	1.171000   
682.000000	0.751000   
682.500000	0.726000   
683.000000	0.604000   
683.500000	0.814999   
684.000000	0.797000   
684.500000	0.636000   
685.000000	0.810000   
685.500000	1.031000   
686.000000	0.741000   
686.500000	0.502000   
687.000000	0.671000   
687.500000	0.718000   
688.000000	0.775000   
688.500000	0.631000   
689.000000	0.744000   
689.500000	0.483000   
690.000000	0.723000   
690.500000	0.731000   
691.000000	1.224000   
691.500000	0.367000   
692.000000	0.729000   
692.500000	0.678000   
693.000000	0.549000   
693.500000	0.848000   
694.000000	0.575000   
694.500000	0.897000   
695.000000	0.475000   
695.500000	0.719000   
696.000000	0.550000   
696.500000	0.672000   
697.000000	0.355000   
697.500000	0.224000   
698.000000	0.664000   
698.500000	0.437000   
699.000000	0.713000   
699.500000	0.708000   
700.000000	0.364000   
700.500000	0.021000   

