PE FL                   SPECTRUM    ASCII       PEDS        1.60        
  -1
DMB016.SP
23/03/01
16:50:25.00
23/03/01
16:51:26.00


700.500000
1









LS50-B
415.00
2.50
2.50
SCAN
1
20
100
100
0
400
0
1
0
1
7
ON
700 415 
1 0 0
#HDR
-1
-1
#GR
NM
INT 
0.00002384185791015625
0.0
380.000000
0.500000
642
8
214.659000
-0.322000
#DATA
380.000000	0.000000   
380.500000	0.056000   
381.000000	0.027000   
381.500000	0.054000   
382.000000	0.055000   
382.500000	-0.028000  
383.000000	0.154000   
383.500000	0.066000   
384.000000	0.041000   
384.500000	0.028000   
385.000000	0.053000   
385.500000	0.000000   
386.000000	-0.008000  
386.500000	0.183000   
387.000000	-0.024000  
387.500000	0.000000   
388.000000	0.110000   
388.500000	0.145000   
389.000000	0.179000   
389.500000	0.134000   
390.000000	0.133000   
390.500000	0.277000   
391.000000	0.163000   
391.500000	-0.056000  
392.000000	0.026000   
392.500000	0.051000   
393.000000	-0.002000  
393.500000	-0.011000  
394.000000	0.014000   
394.500000	0.027000   
395.000000	0.041000   
395.500000	0.271000   
396.000000	0.049000   
396.500000	0.056000   
397.000000	0.028000   
397.500000	0.056000   
398.000000	0.154000   
398.500000	0.033000   
399.000000	0.119000   
399.500000	0.174000   
400.000000	0.159000   
400.500000	0.236000   
401.000000	0.189000   
401.500000	0.112000   
402.000000	0.133000   
402.500000	0.001000   
403.000000	0.166000   
403.500000	0.133000   
404.000000	0.141000   
404.500000	-0.056000  
405.000000	0.116000   
405.500000	0.263000   
406.000000	0.408000   
406.500000	0.496000   
407.000000	0.436000   
407.500000	0.532000   
408.000000	0.647000   
408.500000	1.513000   
409.000000	2.506000   
409.500000	6.378000   
410.000000	11.466000  
410.500000	21.095000  
411.000000	37.737000  
411.500000	63.035000  
412.000000	93.035000  
412.500000	130.915000 
413.000000	162.420000 
413.500000	195.359000 
414.000000	212.224000 
414.500000	214.659000 
415.000000	186.564000 
415.500000	148.415000 
416.000000	117.238000 
416.500000	78.770000  
417.000000	49.208000  
417.500000	29.573000  
418.000000	15.726000  
418.500000	8.244000   
419.000000	4.092000   
419.500000	1.675000   
420.000000	1.250000   
420.500000	0.917000   
421.000000	0.375000   
421.500000	0.331000   
422.000000	0.312000   
422.500000	0.325000   
423.000000	0.190000   
423.500000	0.360000   
424.000000	0.096000   
424.500000	0.182000   
425.000000	0.320000   
425.500000	0.000000   
426.000000	0.133000   
426.500000	0.182000   
427.000000	0.000000   
427.500000	0.133000   
428.000000	0.171000   
428.500000	0.244000   
429.000000	0.276000   
429.500000	0.184000   
430.000000	-0.036000  
430.500000	0.106000   
431.000000	0.120000   
431.500000	-0.235000  
432.000000	0.028000   
432.500000	0.055000   
433.000000	0.131000   
433.500000	0.111000   
434.000000	0.008000   
434.500000	0.078000   
435.000000	0.039000   
435.500000	0.089000   
436.000000	0.099000   
436.500000	0.181000   
437.000000	0.074000   
437.500000	0.011000   
438.000000	0.089000   
438.500000	0.094000   
439.000000	0.133000   
439.500000	0.219000   
440.000000	0.070000   
440.500000	-0.095000  
441.000000	-0.116000  
441.500000	0.178000   
442.000000	0.167000   
442.500000	-0.094000  
443.000000	0.127000   
443.500000	0.066000   
444.000000	-0.085999  
444.500000	0.209000   
445.000000	0.189000   
445.500000	0.011000   
446.000000	-0.044000  
446.500000	-0.005000  
447.000000	0.051000   
447.500000	0.311000   
448.000000	-0.101000  
448.500000	0.252000   
449.000000	0.060000   
449.500000	0.000000   
450.000000	-0.067000  
450.500000	-0.121000  
451.000000	-0.019000  
451.500000	-0.054000  
452.000000	-0.164000  
452.500000	0.214000   
453.000000	0.231000   
453.500000	0.271000   
454.000000	0.304000   
454.500000	0.299000   
455.000000	0.320000   
455.500000	0.219000   
456.000000	0.044000   
456.500000	0.114000   
457.000000	0.121000   
457.500000	0.189000   
458.000000	0.097000   
458.500000	0.061000   
459.000000	0.157000   
459.500000	0.000000   
460.000000	-0.111000  
460.500000	0.085000   
461.000000	0.169000   
461.500000	0.112000   
462.000000	0.097000   
462.500000	0.077000   
463.000000	0.065000   
463.500000	0.180000   
464.000000	0.119000   
464.500000	0.107000   
465.000000	0.026000   
465.500000	0.112000   
466.000000	0.131000   
466.500000	0.083000   
467.000000	0.110000   
467.500000	0.175000   
468.000000	0.325000   
468.500000	0.055000   
469.000000	-0.129000  
469.500000	0.054000   
470.000000	0.146000   
470.500000	-0.175000  
471.000000	-0.059000  
471.500000	-0.111000  
472.000000	0.128000   
472.500000	0.061000   
473.000000	-0.066000  
473.500000	-0.054000  
474.000000	0.188000   
474.500000	0.055000   
475.000000	-0.124000  
475.500000	-0.174000  
476.000000	0.036000   
476.500000	0.084000   
477.000000	0.113000   
477.500000	0.000000   
478.000000	0.048000   
478.500000	0.253000   
479.000000	0.128000   
479.500000	0.000000   
480.000000	0.085999   
480.500000	0.061000   
481.000000	-0.013000  
481.500000	0.065000   
482.000000	0.218000   
482.500000	0.155000   
483.000000	0.074000   
483.500000	0.181000   
484.000000	-0.027000  
484.500000	0.027000   
485.000000	0.042000   
485.500000	0.177000   
486.000000	-0.058000  
486.500000	-0.087999  
487.000000	-0.028000  
487.500000	0.056000   
488.000000	0.022000   
488.500000	0.152000   
489.000000	0.098000   
489.500000	-0.132000  
490.000000	0.000000   
490.500000	0.006000   
491.000000	-0.039000  
491.500000	-0.113000  
492.000000	0.160000   
492.500000	0.000000   
493.000000	0.013000   
493.500000	0.110000   
494.000000	-0.210000  
494.500000	-0.022000  
495.000000	0.040000   
495.500000	0.067000   
496.000000	0.000000   
496.500000	0.000000   
497.000000	0.000000   
497.500000	0.109000   
498.000000	0.014000   
498.500000	0.083000   
499.000000	0.069000   
499.500000	-0.045000  
500.000000	-0.133000  
500.500000	-0.077000  
501.000000	0.044000   
501.500000	0.112000   
502.000000	-0.015000  
502.500000	0.084000   
503.000000	0.049000   
503.500000	-0.110000  
504.000000	-0.021000  
504.500000	-0.094000  
505.000000	0.022000   
505.500000	0.110000   
506.000000	-0.085999  
506.500000	-0.116000  
507.000000	0.164000   
507.500000	-0.178000  
508.000000	-0.014000  
508.500000	-0.195000  
509.000000	-0.076000  
509.500000	0.055000   
510.000000	0.083000   
510.500000	-0.068000  
511.000000	-0.107000  
511.500000	0.000000   
512.000000	0.059000   
512.500000	0.123000   
513.000000	0.143000   
513.500000	0.098000   
514.000000	0.000000   
514.500000	-0.027000  
515.000000	-0.013000  
515.500000	0.000000   
516.000000	0.000000   
516.500000	0.000000   
517.000000	0.050000   
517.500000	-0.110000  
518.000000	0.034000   
518.500000	0.071999   
519.000000	0.086999   
519.500000	0.000000   
520.000000	-0.023000  
520.500000	-0.055000  
521.000000	-0.077000  
521.500000	-0.180000  
522.000000	0.004000   
522.500000	0.065000   
523.000000	0.129000   
523.500000	-0.178000  
524.000000	0.022000   
524.500000	-0.060000  
525.000000	-0.084000  
525.500000	-0.066000  
526.000000	-0.021000  
526.500000	-0.144000  
527.000000	-0.011000  
527.500000	0.068000   
528.000000	0.136000   
528.500000	0.070999   
529.000000	-0.018000  
529.500000	-0.109000  
530.000000	-0.028000  
530.500000	-0.004000  
531.000000	0.108000   
531.500000	-0.110000  
532.000000	0.000000   
532.500000	0.000000   
533.000000	-0.082000  
533.500000	-0.054000  
534.000000	0.169000   
534.500000	0.105000   
535.000000	-0.111000  
535.500000	0.189000   
536.000000	0.045000   
536.500000	0.061000   
537.000000	-0.064000  
537.500000	0.055000   
538.000000	0.040000   
538.500000	0.000000   
539.000000	-0.273000  
539.500000	-0.055000  
540.000000	0.070999   
540.500000	0.093000   
541.000000	0.065000   
541.500000	-0.055000  
542.000000	-0.078000  
542.500000	-0.266000  
543.000000	-0.122000  
543.500000	-0.044000  
544.000000	0.063000   
544.500000	0.210000   
545.000000	-0.108000  
545.500000	-0.112000  
546.000000	-0.047000  
546.500000	0.055000   
547.000000	0.050000   
547.500000	-0.110000  
548.000000	-0.047000  
548.500000	-0.121000  
549.000000	0.120000   
549.500000	-0.178000  
550.000000	-0.181000  
550.500000	0.084000   
551.000000	0.230000   
551.500000	0.109000   
552.000000	0.023000   
552.500000	0.034000   
553.000000	0.217000   
553.500000	-0.289000  
554.000000	0.113000   
554.500000	0.118000   
555.000000	0.085000   
555.500000	0.000000   
556.000000	0.188000   
556.500000	0.033000   
557.000000	-0.119000  
557.500000	0.000000   
558.000000	-0.070000  
558.500000	0.012000   
559.000000	0.166000   
559.500000	0.067000   
560.000000	0.128000   
560.500000	-0.004000  
561.000000	0.038000   
561.500000	0.136000   
562.000000	-0.100000  
562.500000	0.066000   
563.000000	0.033000   
563.500000	0.011000   
564.000000	-0.003000  
564.500000	0.090000   
565.000000	0.087999   
565.500000	-0.154000  
566.000000	0.007000   
566.500000	0.095000   
567.000000	-0.042000  
567.500000	0.011000   
568.000000	-0.035000  
568.500000	0.027000   
569.000000	-0.042000  
569.500000	0.055000   
570.000000	-0.056000  
570.500000	-0.055000  
571.000000	-0.013000  
571.500000	0.190000   
572.000000	-0.017000  
572.500000	-0.100000  
573.000000	0.008000   
573.500000	0.284000   
574.000000	0.041000   
574.500000	0.000000   
575.000000	0.000000   
575.500000	0.109000   
576.000000	0.066000   
576.500000	-0.005000  
577.000000	0.022000   
577.500000	0.055000   
578.000000	-0.014000  
578.500000	0.027000   
579.000000	0.317000   
579.500000	0.000000   
580.000000	0.132000   
580.500000	0.118000   
581.000000	-0.073000  
581.500000	0.011000   
582.000000	0.041000   
582.500000	0.182000   
583.000000	0.191000   
583.500000	-0.043000  
584.000000	-0.014000  
584.500000	0.049000   
585.000000	0.037000   
585.500000	0.188000   
586.000000	0.000000   
586.500000	0.056000   
587.000000	0.163000   
587.500000	0.000000   
588.000000	0.103000   
588.500000	0.038000   
589.000000	0.013000   
589.500000	0.100000   
590.000000	0.122000   
590.500000	0.005000   
591.000000	-0.026000  
591.500000	0.056000   
592.000000	0.147000   
592.500000	0.027000   
593.000000	0.033000   
593.500000	-0.191000  
594.000000	0.064000   
594.500000	-0.059000  
595.000000	-0.322000  
595.500000	0.055000   
596.000000	-0.013000  
596.500000	0.028000   
597.000000	-0.056000  
597.500000	-0.055000  
598.000000	0.069000   
598.500000	0.054000   
599.000000	0.000000   
599.500000	0.000000   
600.000000	0.000000   
600.500000	0.065000   
601.000000	-0.142000  
601.500000	0.142000   
602.000000	0.230000   
602.500000	0.297000   
603.000000	0.164000   
603.500000	0.175000   
604.000000	0.076000   
604.500000	-0.134000  
605.000000	0.001000   
605.500000	0.223000   
606.000000	-0.147000  
606.500000	-0.117000  
607.000000	-0.085000  
607.500000	0.176000   
608.000000	0.025000   
608.500000	0.089000   
609.000000	0.127000   
609.500000	0.000000   
610.000000	0.036000   
610.500000	-0.013000  
611.000000	0.007000   
611.500000	0.137000   
612.000000	0.024000   
612.500000	-0.175000  
613.000000	0.074000   
613.500000	-0.055000  
614.000000	0.196000   
614.500000	0.055000   
615.000000	0.063000   
615.500000	-0.055000  
616.000000	0.044000   
616.500000	-0.049000  
617.000000	0.125000   
617.500000	0.000000   
618.000000	0.012000   
618.500000	0.078000   
619.000000	0.069000   
619.500000	0.222000   
620.000000	-0.117000  
620.500000	0.049000   
621.000000	0.033000   
621.500000	0.055000   
622.000000	-0.069000  
622.500000	-0.001000  
623.000000	0.068000   
623.500000	0.000000   
624.000000	-0.011000  
624.500000	0.006000   
625.000000	-0.155000  
625.500000	0.000000   
626.000000	0.022000   
626.500000	0.000000   
627.000000	-0.057000  
627.500000	0.000000   
628.000000	-0.025000  
628.500000	-0.053000  
629.000000	0.007000   
629.500000	0.066000   
630.000000	0.096000   
630.500000	0.000000   
631.000000	-0.041000  
631.500000	-0.054000  
632.000000	0.077000   
632.500000	0.032000   
633.000000	-0.019000  
633.500000	-0.010000  
634.000000	0.000000   
634.500000	0.051000   
635.000000	0.108000   
635.500000	-0.056000  
636.000000	0.055000   
636.500000	0.188000   
637.000000	0.129000   
637.500000	0.000000   
638.000000	-0.038000  
638.500000	-0.061000  
639.000000	0.100000   
639.500000	0.000000   
640.000000	0.055000   
640.500000	-0.021000  
641.000000	-0.085000  
641.500000	-0.055000  
642.000000	-0.069000  
642.500000	-0.110000  
643.000000	-0.035000  
643.500000	-0.110000  
644.000000	0.098000   
644.500000	0.034000   
645.000000	0.016000   
645.500000	0.111000   
646.000000	0.158000   
646.500000	0.053000   
647.000000	0.102000   
647.500000	-0.055000  
648.000000	0.014000   
648.500000	0.027000   
649.000000	0.084000   
649.500000	-0.054000  
650.000000	0.131000   
650.500000	0.000000   
651.000000	0.084000   
651.500000	0.000000   
652.000000	0.024000   
652.500000	-0.005000  
653.000000	-0.027000  
653.500000	0.055000   
654.000000	-0.024000  
654.500000	0.033000   
655.000000	0.183000   
655.500000	-0.191000  
656.000000	0.099000   
656.500000	0.093000   
657.000000	0.046000   
657.500000	0.056000   
658.000000	-0.047000  
658.500000	-0.120000  
659.000000	-0.013000  
659.500000	-0.055000  
660.000000	-0.085999  
660.500000	0.000000   
661.000000	-0.013000  
661.500000	-0.056000  
662.000000	0.014000   
662.500000	0.055000   
663.000000	0.114000   
663.500000	0.000000   
664.000000	-0.025000  
664.500000	0.033000   
665.000000	0.042000   
665.500000	0.133000   
666.000000	0.000000   
666.500000	0.050000   
667.000000	-0.206000  
667.500000	0.010000   
668.000000	-0.055000  
668.500000	-0.027000  
669.000000	-0.042000  
669.500000	0.000000   
670.000000	0.028000   
670.500000	0.082000   
671.000000	0.054000   
671.500000	0.000000   
672.000000	0.070000   
672.500000	-0.038000  
673.000000	-0.046000  
673.500000	0.055000   
674.000000	0.003000   
674.500000	0.000000   
675.000000	-0.002000  
675.500000	-0.055000  
676.000000	0.014000   
676.500000	0.028000   
677.000000	0.083000   
677.500000	0.000000   
678.000000	0.063000   
678.500000	0.000000   
679.000000	0.028000   
679.500000	0.000000   
680.000000	0.014000   
680.500000	0.001000   
681.000000	-0.054000  
681.500000	-0.230000  
682.000000	0.014000   
682.500000	0.027000   
683.000000	0.082000   
683.500000	0.155000   
684.000000	0.066000   
684.500000	0.033000   
685.000000	0.041000   
685.500000	0.067000   
686.000000	-0.095000  
686.500000	0.033000   
687.000000	0.013000   
687.500000	0.055000   
688.000000	0.063000   
688.500000	0.027000   
689.000000	0.000000   
689.500000	0.000000   
690.000000	-0.014000  
690.500000	-0.120000  
691.000000	-0.046000  
691.500000	0.000000   
692.000000	0.000000   
692.500000	0.000000   
693.000000	0.000000   
693.500000	0.000000   
694.000000	-0.016000  
694.500000	0.000000   
695.000000	0.000000   
695.500000	0.000000   
696.000000	-0.036000  
696.500000	0.027000   
697.000000	0.000000   
697.500000	0.111000   
698.000000	0.133000   
698.500000	0.183000   
699.000000	-0.042000  
699.500000	0.066000   
700.000000	0.000000   
700.500000	-0.065000  

