PE FL                   SPECTRUM    ASCII       PEDS        1.60        
  -1
DMB003.SP
23/03/01
15:49:37.00
23/03/01
15:50:38.00


700.500000
1









LS50-B
415.00
2.50
2.50
SCAN
1
20
100
100
0
400
0
1
0
1
7
ON
700 415 
1 0 0
#HDR
-1
-1
#GR
NM
INT 
0.00002384185791015625
0.0
380.000000
0.500000
642
8
418.171000
-0.406000
#DATA
380.000000	0.000000   
380.500000	0.097000   
381.000000	0.340000   
381.500000	0.044000   
382.000000	0.221000   
382.500000	0.136000   
383.000000	0.232000   
383.500000	0.066000   
384.000000	0.049000   
384.500000	0.194000   
385.000000	0.137000   
385.500000	0.097000   
386.000000	0.258000   
386.500000	0.403000   
387.000000	0.206000   
387.500000	0.131000   
388.000000	0.228000   
388.500000	-0.002000  
389.000000	0.130000   
389.500000	0.304000   
390.000000	0.085000   
390.500000	0.223000   
391.000000	0.035000   
391.500000	0.098000   
392.000000	0.226000   
392.500000	0.171000   
393.000000	0.142000   
393.500000	0.272000   
394.000000	0.199000   
394.500000	0.150000   
395.000000	0.033000   
395.500000	0.316000   
396.000000	0.350000   
396.500000	0.213000   
397.000000	0.244000   
397.500000	0.086999   
398.000000	-0.182000  
398.500000	0.143000   
399.000000	0.172000   
399.500000	0.329000   
400.000000	0.354000   
400.500000	0.505000   
401.000000	0.285000   
401.500000	0.196000   
402.000000	0.395000   
402.500000	0.582000   
403.000000	0.282000   
403.500000	0.043000   
404.000000	0.454000   
404.500000	0.462000   
405.000000	0.543000   
405.500000	0.618000   
406.000000	0.467000   
406.500000	0.892000   
407.000000	0.858000   
407.500000	0.978000   
408.000000	1.536000   
408.500000	2.413000   
409.000000	4.942000   
409.500000	11.192000  
410.000000	22.793000  
410.500000	45.191000  
411.000000	79.738000  
411.500000	125.423000 
412.000000	197.877000 
412.500000	273.414000 
413.000000	337.612000 
413.500000	404.906000 
414.000000	418.171000 
414.500000	404.528000 
415.000000	369.374000 
415.500000	293.251000 
416.000000	157.899000 
416.500000	136.104000 
417.000000	87.272000  
417.500000	44.025000  
418.000000	25.687000  
418.500000	11.780000  
419.000000	5.901000   
419.500000	2.408000   
420.000000	1.506000   
420.500000	0.915000   
421.000000	0.907000   
421.500000	0.498000   
422.000000	0.963000   
422.500000	0.725000   
423.000000	0.437000   
423.500000	0.534000   
424.000000	0.379000   
424.500000	0.316000   
425.000000	0.201000   
425.500000	0.055000   
426.000000	0.366000   
426.500000	0.376000   
427.000000	0.141000   
427.500000	0.462000   
428.000000	0.222000   
428.500000	0.184000   
429.000000	0.109000   
429.500000	0.110000   
430.000000	0.241000   
430.500000	0.141000   
431.000000	0.464000   
431.500000	0.453000   
432.000000	0.127000   
432.500000	0.267000   
433.000000	0.622000   
433.500000	0.332000   
434.000000	0.201000   
434.500000	0.211000   
435.000000	0.109000   
435.500000	0.176000   
436.000000	0.328000   
436.500000	0.155000   
437.000000	0.287000   
437.500000	0.107000   
438.000000	0.261000   
438.500000	0.087999   
439.000000	0.255000   
439.500000	0.055000   
440.000000	0.417000   
440.500000	0.186000   
441.000000	0.132000   
441.500000	0.000000   
442.000000	0.319000   
442.500000	0.162000   
443.000000	0.260000   
443.500000	0.064000   
444.000000	0.014000   
444.500000	0.137000   
445.000000	0.062000   
445.500000	0.235000   
446.000000	0.232000   
446.500000	-0.011000  
447.000000	0.373000   
447.500000	-0.044000  
448.000000	0.032000   
448.500000	0.133000   
449.000000	0.016000   
449.500000	0.141000   
450.000000	0.105000   
450.500000	0.149000   
451.000000	0.115000   
451.500000	0.000000   
452.000000	0.189000   
452.500000	0.147000   
453.000000	0.155000   
453.500000	0.198000   
454.000000	0.194000   
454.500000	0.246000   
455.000000	0.457000   
455.500000	0.085999   
456.000000	0.058000   
456.500000	0.119000   
457.000000	0.035000   
457.500000	0.239000   
458.000000	0.048000   
458.500000	0.203000   
459.000000	0.201000   
459.500000	0.054000   
460.000000	0.039000   
460.500000	0.120000   
461.000000	0.104000   
461.500000	-0.097000  
462.000000	0.147000   
462.500000	0.058000   
463.000000	0.269000   
463.500000	0.087999   
464.000000	0.079000   
464.500000	0.151000   
465.000000	0.078000   
465.500000	0.100000   
466.000000	0.043000   
466.500000	0.214000   
467.000000	0.063000   
467.500000	0.000000   
468.000000	0.205000   
468.500000	0.183000   
469.000000	0.055000   
469.500000	-0.054000  
470.000000	0.055000   
470.500000	0.205000   
471.000000	0.014000   
471.500000	0.190000   
472.000000	0.084000   
472.500000	0.270000   
473.000000	0.269000   
473.500000	0.139000   
474.000000	0.068000   
474.500000	0.126000   
475.000000	0.168000   
475.500000	-0.132000  
476.000000	0.015000   
476.500000	0.054000   
477.000000	0.035000   
477.500000	0.098000   
478.000000	0.337000   
478.500000	0.021000   
479.000000	0.164000   
479.500000	0.098000   
480.000000	0.044000   
480.500000	0.071999   
481.000000	0.132000   
481.500000	0.198000   
482.000000	0.108000   
482.500000	0.171000   
483.000000	0.122000   
483.500000	0.010000   
484.000000	-0.047000  
484.500000	0.092000   
485.000000	0.160000   
485.500000	0.086999   
486.000000	0.033000   
486.500000	0.049000   
487.000000	0.066000   
487.500000	0.142000   
488.000000	0.050000   
488.500000	0.099000   
489.000000	0.000000   
489.500000	0.230000   
490.000000	0.095000   
490.500000	0.223000   
491.000000	0.139000   
491.500000	-0.022000  
492.000000	0.055000   
492.500000	0.073000   
493.000000	0.122000   
493.500000	0.437000   
494.000000	0.052000   
494.500000	0.022000   
495.000000	0.073000   
495.500000	0.054000   
496.000000	0.045000   
496.500000	0.231000   
497.000000	0.211000   
497.500000	0.240000   
498.000000	0.077000   
498.500000	0.021000   
499.000000	0.114000   
499.500000	-0.085999  
500.000000	0.151000   
500.500000	0.022000   
501.000000	0.164000   
501.500000	0.089000   
502.000000	-0.044000  
502.500000	0.032000   
503.000000	0.094000   
503.500000	0.099000   
504.000000	0.085000   
504.500000	0.022000   
505.000000	0.033000   
505.500000	0.087999   
506.000000	0.011000   
506.500000	-0.049000  
507.000000	-0.027000  
507.500000	0.000000   
508.000000	0.028000   
508.500000	0.054000   
509.000000	0.000000   
509.500000	0.317000   
510.000000	0.000000   
510.500000	0.044000   
511.000000	0.096000   
511.500000	0.054000   
512.000000	0.000000   
512.500000	0.071999   
513.000000	0.108000   
513.500000	-0.010000  
514.000000	0.000000   
514.500000	0.049000   
515.000000	-0.049000  
515.500000	0.000000   
516.000000	0.077000   
516.500000	0.099000   
517.000000	0.038000   
517.500000	0.000000   
518.000000	0.011000   
518.500000	0.197000   
519.000000	0.203000   
519.500000	0.217000   
520.000000	0.041000   
520.500000	-0.021000  
521.000000	0.063000   
521.500000	-0.011000  
522.000000	0.044000   
522.500000	0.227000   
523.000000	0.177000   
523.500000	0.010000   
524.000000	0.025000   
524.500000	0.103000   
525.000000	-0.104000  
525.500000	0.274000   
526.000000	0.148000   
526.500000	0.021000   
527.000000	0.000000   
527.500000	0.000000   
528.000000	0.000000   
528.500000	0.000000   
529.000000	0.075000   
529.500000	0.043000   
530.000000	0.248000   
530.500000	0.021000   
531.000000	-0.041000  
531.500000	0.140000   
532.000000	0.136000   
532.500000	0.085999   
533.000000	0.128000   
533.500000	-0.098000  
534.000000	0.120000   
534.500000	0.252000   
535.000000	0.006000   
535.500000	-0.101000  
536.000000	0.083000   
536.500000	0.132000   
537.000000	0.127000   
537.500000	0.043000   
538.000000	0.015000   
538.500000	0.044000   
539.000000	0.155000   
539.500000	0.043000   
540.000000	0.066000   
540.500000	-0.028000  
541.000000	0.020000   
541.500000	0.011000   
542.000000	0.038000   
542.500000	0.017000   
543.000000	-0.154000  
543.500000	0.141000   
544.000000	0.036000   
544.500000	0.070000   
545.000000	-0.074000  
545.500000	0.086999   
546.000000	0.202000   
546.500000	0.005000   
547.000000	0.033000   
547.500000	0.000000   
548.000000	0.090000   
548.500000	0.202000   
549.000000	0.176000   
549.500000	0.044000   
550.000000	-0.032000  
550.500000	0.022000   
551.000000	0.084000   
551.500000	0.000000   
552.000000	0.076000   
552.500000	0.115000   
553.000000	0.006000   
553.500000	0.000000   
554.000000	0.083000   
554.500000	0.237000   
555.000000	0.076000   
555.500000	0.010000   
556.000000	0.155000   
556.500000	0.049000   
557.000000	-0.074000  
557.500000	0.099000   
558.000000	0.147000   
558.500000	0.055000   
559.000000	0.024000   
559.500000	0.230000   
560.000000	0.197000   
560.500000	0.206000   
561.000000	0.119000   
561.500000	0.011000   
562.000000	0.253000   
562.500000	0.016000   
563.000000	-0.080000  
563.500000	0.195000   
564.000000	0.011000   
564.500000	0.022000   
565.000000	0.033000   
565.500000	0.199000   
566.000000	0.144000   
566.500000	0.085999   
567.000000	0.156000   
567.500000	0.000000   
568.000000	0.110000   
568.500000	0.126000   
569.000000	0.108000   
569.500000	0.141000   
570.000000	0.011000   
570.500000	0.049000   
571.000000	0.013000   
571.500000	-0.011000  
572.000000	0.062000   
572.500000	0.027000   
573.000000	0.106000   
573.500000	0.000000   
574.000000	-0.050000  
574.500000	-0.043000  
575.000000	0.061000   
575.500000	-0.097000  
576.000000	0.008000   
576.500000	0.103000   
577.000000	0.227000   
577.500000	0.108000   
578.000000	0.098000   
578.500000	0.059000   
579.000000	0.210000   
579.500000	0.098000   
580.000000	-0.023000  
580.500000	-0.044000  
581.000000	0.033000   
581.500000	0.192000   
582.000000	0.076000   
582.500000	-0.107000  
583.000000	-0.055000  
583.500000	0.231000   
584.000000	0.000000   
584.500000	0.044000   
585.000000	0.054000   
585.500000	-0.406000  
586.000000	0.008000   
586.500000	-0.044000  
587.000000	-0.021000  
587.500000	0.097000   
588.000000	-0.013000  
588.500000	0.326000   
589.000000	0.266000   
589.500000	0.000000   
590.000000	0.142000   
590.500000	0.022000   
591.000000	0.095000   
591.500000	0.142000   
592.000000	0.097000   
592.500000	0.027000   
593.000000	0.152000   
593.500000	0.217000   
594.000000	0.025000   
594.500000	0.049000   
595.000000	0.000000   
595.500000	0.010000   
596.000000	0.132000   
596.500000	0.142000   
597.000000	0.005000   
597.500000	0.186000   
598.000000	-0.055000  
598.500000	-0.038000  
599.000000	0.019000   
599.500000	0.054000   
600.000000	-0.118000  
600.500000	0.070000   
601.000000	0.106000   
601.500000	0.223000   
602.000000	0.057000   
602.500000	0.064000   
603.000000	-0.024000  
603.500000	0.144000   
604.000000	0.056000   
604.500000	0.315000   
605.000000	0.264000   
605.500000	0.010000   
606.000000	0.108000   
606.500000	0.059000   
607.000000	0.020000   
607.500000	0.054000   
608.000000	0.110000   
608.500000	0.050000   
609.000000	-0.003000  
609.500000	0.021000   
610.000000	0.119000   
610.500000	0.128000   
611.000000	0.050000   
611.500000	0.000000   
612.000000	0.145000   
612.500000	0.000000   
613.000000	0.042000   
613.500000	0.229000   
614.000000	0.062000   
614.500000	0.086999   
615.000000	0.103000   
615.500000	0.414000   
616.000000	0.034000   
616.500000	-0.017000  
617.000000	0.005000   
617.500000	0.043000   
618.000000	0.083000   
618.500000	0.099000   
619.000000	0.071999   
619.500000	-0.010000  
620.000000	0.117000   
620.500000	0.048000   
621.000000	0.064000   
621.500000	0.056000   
622.000000	0.011000   
622.500000	0.120000   
623.000000	0.212000   
623.500000	0.000000   
624.000000	0.277000   
624.500000	0.086999   
625.000000	0.043000   
625.500000	0.144000   
626.000000	0.148000   
626.500000	0.163000   
627.000000	0.013000   
627.500000	0.215000   
628.000000	0.048000   
628.500000	-0.022000  
629.000000	0.070999   
629.500000	0.000000   
630.000000	0.020000   
630.500000	0.070999   
631.000000	-0.083000  
631.500000	0.098000   
632.000000	0.194000   
632.500000	0.075000   
633.000000	0.053000   
633.500000	0.096000   
634.000000	0.000000   
634.500000	0.110000   
635.000000	-0.163000  
635.500000	0.099000   
636.000000	-0.017000  
636.500000	0.039000   
637.000000	0.141000   
637.500000	0.044000   
638.000000	0.070999   
638.500000	0.017000   
639.000000	0.011000   
639.500000	-0.098000  
640.000000	-0.003000  
640.500000	0.044000   
641.000000	0.064000   
641.500000	0.000000   
642.000000	-0.017000  
642.500000	0.028000   
643.000000	0.046000   
643.500000	0.000000   
644.000000	0.000000   
644.500000	0.006000   
645.000000	0.002000   
645.500000	0.099000   
646.000000	0.071999   
646.500000	0.108000   
647.000000	0.221000   
647.500000	0.000000   
648.000000	0.007000   
648.500000	0.000000   
649.000000	0.075000   
649.500000	0.000000   
650.000000	0.052000   
650.500000	-0.021000  
651.000000	0.076000   
651.500000	0.140000   
652.000000	0.011000   
652.500000	0.022000   
653.000000	0.000000   
653.500000	0.043000   
654.000000	0.070999   
654.500000	-0.010000  
655.000000	0.031000   
655.500000	0.044000   
656.000000	0.031000   
656.500000	0.011000   
657.000000	-0.158000  
657.500000	0.000000   
658.000000	0.043000   
658.500000	0.120000   
659.000000	-0.114000  
659.500000	-0.107000  
660.000000	-0.019000  
660.500000	0.027000   
661.000000	0.108000   
661.500000	0.043000   
662.000000	0.306000   
662.500000	0.054000   
663.000000	0.034000   
663.500000	-0.099000  
664.000000	0.083000   
664.500000	0.070000   
665.000000	0.056000   
665.500000	0.000000   
666.000000	0.129000   
666.500000	0.048000   
667.000000	0.000000   
667.500000	0.000000   
668.000000	0.098000   
668.500000	0.049000   
669.000000	0.106000   
669.500000	0.000000   
670.000000	0.000000   
670.500000	0.000000   
671.000000	0.075000   
671.500000	0.099000   
672.000000	0.025000   
672.500000	0.049000   
673.000000	0.000000   
673.500000	0.043000   
674.000000	0.000000   
674.500000	0.000000   
675.000000	0.150000   
675.500000	0.000000   
676.000000	0.086999   
676.500000	0.099000   
677.000000	0.027000   
677.500000	0.045000   
678.000000	-0.008000  
678.500000	0.150000   
679.000000	0.059000   
679.500000	-0.055000  
680.000000	0.197000   
680.500000	0.033000   
681.000000	0.087999   
681.500000	0.000000   
682.000000	-0.003000  
682.500000	-0.005000  
683.000000	0.000000   
683.500000	0.000000   
684.000000	0.107000   
684.500000	0.076000   
685.000000	0.067000   
685.500000	0.044000   
686.000000	0.000000   
686.500000	0.086999   
687.000000	0.117000   
687.500000	-0.043000  
688.000000	-0.008000  
688.500000	-0.049000  
689.000000	-0.049000  
689.500000	0.043000   
690.000000	-0.025000  
690.500000	0.023000   
691.000000	0.036000   
691.500000	0.000000   
692.000000	0.062000   
692.500000	-0.049000  
693.000000	0.027000   
693.500000	0.000000   
694.000000	0.007000   
694.500000	-0.050000  
695.000000	0.071999   
695.500000	0.043000   
696.000000	0.130000   
696.500000	0.043000   
697.000000	0.104000   
697.500000	-0.109000  
698.000000	-0.008000  
698.500000	0.049000   
699.000000	-0.049000  
699.500000	0.098000   
700.000000	0.274000   
700.500000	0.449000   

