PE FL                   SPECTRUM    ASCII       PEDS        1.60        
  -1
DMB002.SP
23/03/01
15:45:05.00
23/03/01
15:46:06.00


700.500000
1









LS50-B
415.00
2.50
2.50
SCAN
1
20
100
100
0
400
0
1
0
1
7
ON
700 415 
1 0 0
#HDR
-1
-1
#GR
NM
INT 
0.00002384185791015625
0.0
380.000000
0.500000
642
8
419.262000
-0.219000
#DATA
380.000000	0.198000   
380.500000	0.070999   
381.000000	0.019000   
381.500000	0.144000   
382.000000	0.139000   
382.500000	0.336000   
383.000000	0.240000   
383.500000	0.054000   
384.000000	0.186000   
384.500000	0.279000   
385.000000	0.067000   
385.500000	0.000000   
386.000000	0.251000   
386.500000	0.166000   
387.000000	0.201000   
387.500000	0.226000   
388.000000	0.192000   
388.500000	0.022000   
389.000000	0.000000   
389.500000	0.099000   
390.000000	0.200000   
390.500000	0.273000   
391.000000	0.232000   
391.500000	-0.044000  
392.000000	0.011000   
392.500000	0.044000   
393.000000	0.044000   
393.500000	0.043000   
394.000000	0.053000   
394.500000	0.262000   
395.000000	0.176000   
395.500000	0.043000   
396.000000	0.278000   
396.500000	0.185000   
397.000000	0.394000   
397.500000	0.418000   
398.000000	0.245000   
398.500000	0.208000   
399.000000	0.408000   
399.500000	0.240000   
400.000000	0.318000   
400.500000	0.441000   
401.000000	0.378000   
401.500000	0.150000   
402.000000	0.074000   
402.500000	0.177000   
403.000000	0.438000   
403.500000	0.194000   
404.000000	0.240000   
404.500000	0.586000   
405.000000	0.530000   
405.500000	0.324000   
406.000000	0.367000   
406.500000	0.682000   
407.000000	0.767000   
407.500000	1.314000   
408.000000	1.725000   
408.500000	2.147000   
409.000000	4.953000   
409.500000	9.943000   
410.000000	22.669000  
410.500000	41.422000  
411.000000	75.211000  
411.500000	115.226000 
412.000000	192.238000 
412.500000	261.592000 
413.000000	335.617000 
413.500000	388.445000 
414.000000	419.262000 
414.500000	404.276000 
415.000000	346.721000 
415.500000	279.647000 
416.000000	155.497000 
416.500000	133.884000 
417.000000	84.130000  
417.500000	46.921000  
418.000000	25.145000  
418.500000	10.722000  
419.000000	6.188000   
419.500000	2.351000   
420.000000	1.883000   
420.500000	1.255000   
421.000000	1.158000   
421.500000	0.860000   
422.000000	0.540000   
422.500000	0.300000   
423.000000	0.359000   
423.500000	0.506000   
424.000000	0.532000   
424.500000	0.798000   
425.000000	0.362000   
425.500000	0.314000   
426.000000	0.348000   
426.500000	0.279000   
427.000000	0.352000   
427.500000	0.153000   
428.000000	0.226000   
428.500000	0.339000   
429.000000	0.154000   
429.500000	0.111000   
430.000000	0.014000   
430.500000	0.269000   
431.000000	0.162000   
431.500000	0.010000   
432.000000	0.113000   
432.500000	0.099000   
433.000000	0.186000   
433.500000	0.098000   
434.000000	0.324000   
434.500000	0.135000   
435.000000	0.346000   
435.500000	0.000000   
436.000000	0.153000   
436.500000	0.224000   
437.000000	0.130000   
437.500000	0.450000   
438.000000	0.373000   
438.500000	0.380000   
439.000000	0.161000   
439.500000	0.304000   
440.000000	0.036000   
440.500000	0.292000   
441.000000	0.111000   
441.500000	0.100000   
442.000000	0.208000   
442.500000	0.158000   
443.000000	0.143000   
443.500000	0.098000   
444.000000	0.098000   
444.500000	0.000000   
445.000000	0.241000   
445.500000	0.110000   
446.000000	0.123000   
446.500000	0.122000   
447.000000	0.020000   
447.500000	0.144000   
448.000000	0.032000   
448.500000	0.099000   
449.000000	0.131000   
449.500000	0.140000   
450.000000	0.228000   
450.500000	0.287000   
451.000000	0.188000   
451.500000	0.043000   
452.000000	0.085000   
452.500000	0.027000   
453.000000	0.044000   
453.500000	0.141000   
454.000000	0.279000   
454.500000	0.086999   
455.000000	0.190000   
455.500000	0.196000   
456.000000	0.004000   
456.500000	0.016000   
457.000000	0.244000   
457.500000	-0.065000  
458.000000	0.102000   
458.500000	0.070999   
459.000000	0.008999   
459.500000	0.141000   
460.000000	0.091000   
460.500000	0.244000   
461.000000	0.039000   
461.500000	0.347000   
462.000000	0.066000   
462.500000	0.187000   
463.000000	0.150000   
463.500000	0.109000   
464.000000	0.092000   
464.500000	-0.022000  
465.000000	0.079000   
465.500000	0.258000   
466.000000	0.109000   
466.500000	0.120000   
467.000000	0.074000   
467.500000	0.043000   
468.000000	0.076000   
468.500000	0.021000   
469.000000	0.099000   
469.500000	0.110000   
470.000000	0.011000   
470.500000	0.043000   
471.000000	0.084000   
471.500000	-0.054000  
472.000000	0.163000   
472.500000	0.202000   
473.000000	0.018000   
473.500000	0.258000   
474.000000	0.141000   
474.500000	0.206000   
475.000000	0.091000   
475.500000	0.044000   
476.000000	0.007000   
476.500000	-0.005000  
477.000000	-0.019000  
477.500000	0.010000   
478.000000	0.084000   
478.500000	0.158000   
479.000000	0.216000   
479.500000	0.000000   
480.000000	0.000000   
480.500000	0.049000   
481.000000	0.167000   
481.500000	0.099000   
482.000000	0.161000   
482.500000	0.321000   
483.000000	0.255000   
483.500000	0.224000   
484.000000	0.156000   
484.500000	0.192000   
485.000000	0.013000   
485.500000	0.320000   
486.000000	0.132000   
486.500000	0.118000   
487.000000	0.049000   
487.500000	0.098000   
488.000000	0.169000   
488.500000	0.027000   
489.000000	0.085999   
489.500000	0.142000   
490.000000	0.046000   
490.500000	-0.005000  
491.000000	0.139000   
491.500000	-0.042000  
492.000000	0.169000   
492.500000	0.033000   
493.000000	0.042000   
493.500000	0.098000   
494.000000	0.000000   
494.500000	0.086999   
495.000000	0.076000   
495.500000	0.140000   
496.000000	0.000000   
496.500000	0.000000   
497.000000	0.000000   
497.500000	0.310000   
498.000000	0.124000   
498.500000	0.230000   
499.000000	0.139000   
499.500000	0.230000   
500.000000	0.067000   
500.500000	0.136000   
501.000000	0.107000   
501.500000	-0.055000  
502.000000	-0.101000  
502.500000	-0.066000  
503.000000	-0.079000  
503.500000	0.218000   
504.000000	0.006000   
504.500000	0.186000   
505.000000	0.094000   
505.500000	0.097000   
506.000000	-0.022000  
506.500000	0.007000   
507.000000	0.025000   
507.500000	0.099000   
508.000000	0.043000   
508.500000	0.134000   
509.000000	0.024000   
509.500000	0.098000   
510.000000	0.060000   
510.500000	0.082000   
511.000000	0.206000   
511.500000	-0.098000  
512.000000	0.099000   
512.500000	0.166000   
513.000000	0.025000   
513.500000	0.000000   
514.000000	0.034000   
514.500000	0.083000   
515.000000	0.248000   
515.500000	0.099000   
516.000000	-0.021000  
516.500000	0.023000   
517.000000	0.098000   
517.500000	0.099000   
518.000000	0.028000   
518.500000	0.044000   
519.000000	0.069000   
519.500000	-0.109000  
520.000000	0.011000   
520.500000	0.070999   
521.000000	0.057000   
521.500000	0.099000   
522.000000	0.118000   
522.500000	0.071999   
523.000000	0.000000   
523.500000	0.000000   
524.000000	0.128000   
524.500000	0.109000   
525.000000	0.000000   
525.500000	0.000000   
526.000000	0.075000   
526.500000	0.005000   
527.000000	0.000000   
527.500000	-0.054000  
528.000000	-0.049000  
528.500000	0.098000   
529.000000	0.024000   
529.500000	0.043000   
530.000000	0.043000   
530.500000	-0.077000  
531.000000	0.033000   
531.500000	0.000000   
532.000000	0.132000   
532.500000	-0.066000  
533.000000	0.048000   
533.500000	0.216000   
534.000000	0.065000   
534.500000	-0.070999  
535.000000	-0.060000  
535.500000	0.141000   
536.000000	-0.070000  
536.500000	0.034000   
537.000000	-0.061000  
537.500000	-0.043000  
538.000000	0.035000   
538.500000	0.054000   
539.000000	0.032000   
539.500000	0.000000   
540.000000	0.049000   
540.500000	0.000000   
541.000000	0.000000   
541.500000	0.000000   
542.000000	0.097000   
542.500000	0.119000   
543.000000	0.051000   
543.500000	0.153000   
544.000000	0.022000   
544.500000	0.077000   
545.000000	-0.032000  
545.500000	0.010000   
546.000000	0.000000   
546.500000	0.022000   
547.000000	0.085000   
547.500000	0.099000   
548.000000	0.049000   
548.500000	-0.098000  
549.000000	0.184000   
549.500000	0.098000   
550.000000	-0.025000  
550.500000	-0.022000  
551.000000	0.013000   
551.500000	-0.011000  
552.000000	-0.047000  
552.500000	-0.101000  
553.000000	0.060000   
553.500000	0.226000   
554.000000	0.147000   
554.500000	0.071999   
555.000000	0.077000   
555.500000	0.153000   
556.000000	-0.030000  
556.500000	0.109000   
557.000000	0.340000   
557.500000	0.000000   
558.000000	0.000000   
558.500000	-0.005000  
559.000000	0.030000   
559.500000	0.102000   
560.000000	0.145000   
560.500000	0.130000   
561.000000	-0.006000  
561.500000	0.087999   
562.000000	0.186000   
562.500000	-0.005000  
563.000000	0.056000   
563.500000	0.152000   
564.000000	0.105000   
564.500000	0.050000   
565.000000	0.101000   
565.500000	0.141000   
566.000000	0.082000   
566.500000	0.033000   
567.000000	0.058000   
567.500000	0.000000   
568.000000	0.110000   
568.500000	0.169000   
569.000000	0.189000   
569.500000	0.086999   
570.000000	0.052000   
570.500000	0.240000   
571.000000	-0.054000  
571.500000	0.000000   
572.000000	0.050000   
572.500000	0.121000   
573.000000	-0.023000  
573.500000	0.000000   
574.000000	-0.012000  
574.500000	0.177000   
575.000000	0.102000   
575.500000	0.086999   
576.000000	0.061000   
576.500000	0.026000   
577.000000	0.052000   
577.500000	0.010000   
578.000000	0.062000   
578.500000	0.070000   
579.000000	0.013000   
579.500000	-0.098000  
580.000000	0.097000   
580.500000	0.156000   
581.000000	0.134000   
581.500000	0.044000   
582.000000	0.086999   
582.500000	0.188000   
583.000000	0.365000   
583.500000	-0.097000  
584.000000	-0.024000  
584.500000	0.078000   
585.000000	-0.002000  
585.500000	0.010000   
586.000000	0.141000   
586.500000	-0.050000  
587.000000	-0.008999  
587.500000	0.099000   
588.000000	-0.093000  
588.500000	0.065000   
589.000000	0.118000   
589.500000	0.098000   
590.000000	0.165000   
590.500000	0.022000   
591.000000	0.125000   
591.500000	0.000000   
592.000000	-0.010000  
592.500000	-0.005000  
593.000000	0.000000   
593.500000	0.087999   
594.000000	0.083000   
594.500000	0.070999   
595.000000	0.073000   
595.500000	0.021000   
596.000000	0.091000   
596.500000	0.166000   
597.000000	0.139000   
597.500000	0.010000   
598.000000	0.008999   
598.500000	0.076000   
599.000000	0.090000   
599.500000	-0.043000  
600.000000	-0.055000  
600.500000	0.049000   
601.000000	0.142000   
601.500000	0.266000   
602.000000	0.000000   
602.500000	0.000000   
603.000000	0.008000   
603.500000	0.000000   
604.000000	0.043000   
604.500000	0.043000   
605.000000	0.018000   
605.500000	0.217000   
606.000000	0.284000   
606.500000	0.021000   
607.000000	0.230000   
607.500000	0.043000   
608.000000	0.163000   
608.500000	-0.022000  
609.000000	0.050000   
609.500000	0.044000   
610.000000	0.074000   
610.500000	0.070000   
611.000000	0.010000   
611.500000	0.054000   
612.000000	0.057000   
612.500000	0.039000   
613.000000	-0.046000  
613.500000	0.217000   
614.000000	0.077000   
614.500000	0.087999   
615.000000	0.008000   
615.500000	0.195000   
616.000000	0.007000   
616.500000	-0.049000  
617.000000	-0.008000  
617.500000	0.054000   
618.000000	-0.045000  
618.500000	-0.040000  
619.000000	0.024000   
619.500000	0.199000   
620.000000	0.094000   
620.500000	0.236000   
621.000000	0.174000   
621.500000	0.110000   
622.000000	-0.010000  
622.500000	0.048000   
623.000000	0.150000   
623.500000	0.054000   
624.000000	0.025000   
624.500000	0.028000   
625.000000	0.137000   
625.500000	0.140000   
626.000000	0.180000   
626.500000	0.006000   
627.000000	0.010000   
627.500000	0.044000   
628.000000	-0.022000  
628.500000	0.007000   
629.000000	0.090000   
629.500000	0.141000   
630.000000	0.081000   
630.500000	0.210000   
631.000000	0.057000   
631.500000	-0.131000  
632.000000	0.153000   
632.500000	0.077000   
633.000000	0.024000   
633.500000	0.108000   
634.000000	0.057000   
634.500000	0.027000   
635.000000	0.104000   
635.500000	0.064000   
636.000000	0.004000   
636.500000	0.071999   
637.000000	0.000000   
637.500000	0.098000   
638.000000	0.094000   
638.500000	0.166000   
639.000000	0.078000   
639.500000	0.101000   
640.000000	0.033000   
640.500000	-0.011000  
641.000000	-0.081000  
641.500000	0.000000   
642.000000	-0.004000  
642.500000	0.006000   
643.000000	0.013000   
643.500000	0.000000   
644.000000	-0.062000  
644.500000	0.044000   
645.000000	-0.056000  
645.500000	0.055000   
646.000000	-0.040000  
646.500000	0.000000   
647.000000	0.147000   
647.500000	0.000000   
648.000000	0.000000   
648.500000	0.078000   
649.000000	0.112000   
649.500000	0.098000   
650.000000	0.000000   
650.500000	0.050000   
651.000000	0.017000   
651.500000	0.000000   
652.000000	0.033000   
652.500000	0.000000   
653.000000	0.000000   
653.500000	0.099000   
654.000000	0.110000   
654.500000	0.075000   
655.000000	0.085999   
655.500000	0.000000   
656.000000	0.054000   
656.500000	0.027000   
657.000000	0.032000   
657.500000	0.000000   
658.000000	-0.089000  
658.500000	-0.028000  
659.000000	-0.006000  
659.500000	0.000000   
660.000000	0.000000   
660.500000	0.049000   
661.000000	0.032000   
661.500000	-0.043000  
662.000000	-0.025000  
662.500000	-0.098000  
663.000000	-0.056000  
663.500000	0.000000   
664.000000	0.025000   
664.500000	0.048000   
665.000000	0.074000   
665.500000	0.131000   
666.000000	0.006000   
666.500000	0.010000   
667.000000	0.000000   
667.500000	0.010000   
668.000000	0.281000   
668.500000	0.055000   
669.000000	0.221000   
669.500000	0.000000   
670.000000	0.090000   
670.500000	0.077000   
671.000000	0.013000   
671.500000	0.000000   
672.000000	0.036000   
672.500000	0.126000   
673.000000	0.060000   
673.500000	0.000000   
674.000000	-0.036000  
674.500000	0.075000   
675.000000	0.000000   
675.500000	0.000000   
676.000000	0.083000   
676.500000	0.071999   
677.000000	0.025000   
677.500000	0.097000   
678.000000	0.067000   
678.500000	0.123000   
679.000000	0.002000   
679.500000	-0.054000  
680.000000	0.034000   
680.500000	0.103000   
681.000000	0.082000   
681.500000	0.000000   
682.000000	-0.098000  
682.500000	-0.070999  
683.000000	-0.010000  
683.500000	-0.219000  
684.000000	0.050000   
684.500000	0.077000   
685.000000	0.063000   
685.500000	0.000000   
686.000000	0.066000   
686.500000	0.049000   
687.000000	-0.008000  
687.500000	0.043000   
688.000000	0.032000   
688.500000	0.000000   
689.000000	0.000000   
689.500000	-0.099000  
690.000000	0.000000   
690.500000	0.071999   
691.000000	0.036000   
691.500000	-0.010000  
692.000000	0.011000   
692.500000	0.021000   
693.000000	0.000000   
693.500000	0.000000   
694.000000	0.000000   
694.500000	0.000000   
695.000000	0.008000   
695.500000	0.044000   
696.000000	0.011000   
696.500000	0.043000   
697.000000	0.084000   
697.500000	0.000000   
698.000000	-0.025000  
698.500000	-0.049000  
699.000000	0.129000   
699.500000	0.000000   
700.000000	-0.100000  
700.500000	-0.200000  

